0.006255413338466015,-0.018766240015398047,-0.06880954672312617,-0.06255413338466015,0.06255413338466015,-0.01251082667693203,-0.006255413338466015,0.031277066692330074,0.031277066692330074,0.056298720046194135,0.05004330670772812,0.0813203734000582,-0.0
0.006255413338466015,-0.021266240015398046,-0.07130954672312617,-0.06255413338466015,0.06255413338466015,-0.015010826676932031,-0.008755413338466016,0.028777066692330076,0.026277066692330077,0.048798720046194136,0.04754330670772812,0.0788203734000582,-0.0025
0.006255413338466015,-0.023766240015398045,-0.07380954672312617,-0.06255413338466015,0.06255413338466015,-0.01751082667693203,-0.011255413338466014,0.026277066692330077,0.021277066692330076,0.04129872004619414,0.045043306707728124,0.0763203734000582,-0.005
0.006255413338466015,-0.02502165335386406,-0.07506496006159219,-0.06255413338466015,0.06255413338466015,-0.018766240015398047,-0.016244586661533986,0.02253248003079609,0.01752165335386406,0.03628789336926211,0.04005413338466015,0.07133120007699023,-0.006255413338466015
0.006255413338466015,-0.02502165335386406,-0.07506496006159219,-0.06255413338466015,0.06255413338466015,-0.018766240015398047,-0.023744586661533985,0.01753248003079609,0.01502165335386406,0.033787893369262106,0.03255413338466015,0.06383120007699022,-0.006255413338466015
0.006255413338466015,-0.02502165335386406,-0.07506496006159219,-0.06255413338466015,0.06255413338466015,-0.018766240015398047,-0.03124458666153399,0.01253248003079609,0.01252165335386406,0.031287893369262104,0.02505413338466015,0.056331200076990225,-0.006255413338466015
0.006255413338466015,-0.02502165335386406,-0.07506496006159219,-0.06255413338466015,0.07997834664613596,-0.016277066692330075,-0.038744586661533985,0.007532480030796089,0.007532480030796089,0.026298720046194133,0.022532480030796092,0.05380954672312616,-0.006255413338466015
0.006255413338466015,-0.02502165335386406,-0.07506496006159219,-0.06255413338466015,0.09747834664613594,-0.013777066692330074,-0.046244586661533985,0.002532480030796088,0.002532480030796088,0.021298720046194135,0.020032480030796093,0.05130954672312617,-0.006255413338466015
0.006255413338466015,-0.02502165335386406,-0.07506496006159219,-0.0637878933692621,0.10880954672312618,-0.01251082667693203,-0.05127706669233008,-0.002467519969203912,-0.002467519969203912,0.01753248003079609,0.016298720046194135,0.04757578673852421,-0.006255413338466015
0.006255413338466015,-0.02502165335386406,-0.07506496006159219,-0.06628789336926211,0.11380954672312618,-0.01251082667693203,-0.05377706669233008,-0.0074675199692039165,-0.0074675199692039165,0.015032480030796089,0.01129872004619413,0.042575786738524204,-0.006255413338466015
0.006255413338466015,-0.02502165335386406,-0.07506496006159219,-0.06878789336926211,0.11880954672312617,-0.01251082667693203,-0.056277066692330076,-0.012467519969203911,-0.012467519969203911,0.01253248003079609,0.0062987200461941326,0.037575786738524214,-0.006255413338466015
0.006255413338466015,-0.02502165335386406,-0.07506496006159219,-0.06880954672312617,0.12380954672312616,-0.01251082667693203,-0.056298720046194135,-0.01498917332306797,-0.017467519969203905,0.010032480030796091,0.006255413338466015,0.03505413338466015,-0.006255413338466015
0.006255413338466015,-0.02502165335386406,-0.07506496006159219,-0.06880954672312617,0.12880954672312617,-0.01251082667693203,-0.056298720046194135,-0.017489173323067972,-0.02246751996920391,0.007532480030796091,0.006255413338466015,0.03255413338466015,-0.006255413338466015
0.006255413338466015,-0.02502165335386406,-0.07506496006159219,-0.0700324800307961,0.1350324800307961,-0.01251082667693203,-0.056298720046194135,-0.019989173323067974,-0.027467519969203914,0.0050324800307960885,0.003809546723126161,0.030054133384660148,-0.006255413338466015
0.006255413338466015,-0.02502165335386406,-0.07506496006159219,-0.0725324800307961,0.1425324800307961,-0.01251082667693203,-0.056298720046194135,-0.022489173323067973,-0.03246751996920391,0.0025324800307960894,-0.0011904532768738365,0.02755413338466015,-0.006255413338466015
0.006255413338466015,-0.02502165335386406,-0.07506496006159219,-0.0750324800307961,0.1500324800307961,-0.01251082667693203,-0.056298720046194135,-0.02498917332306797,-0.037467519969203916,3.2480030796090166e-05,-0.006190453276873835,0.02505413338466015,-0.006255413338466015
0.006255413338466015,-0.022554133384660148,-0.07506496006159219,-0.07506496006159219,0.14766240015398047,-0.01251082667693203,-0.05136368010778631,-0.02502165335386406,-0.037532480030796095,-0.002467519969203913,-0.006255413338466015,0.022554133384660148,-0.0037878933692621023
0.006255413338466015,-0.020054133384660146,-0.07506496006159219,-0.07506496006159219,0.14516240015398046,-0.01251082667693203,-0.046363680107786305,-0.02502165335386406,-0.037532480030796095,-0.004967519969203916,-0.006255413338466015,0.020054133384660146,-0.0012878933692620992
0.006255413338466015,-0.018766240015398047,-0.07385285343085428,-0.07627706669233009,0.13175344047733933,-0.01251082667693203,-0.042575786738524204,-0.02502165335386406,-0.038744586661534,-0.006255413338466015,-0.007467519969203919,0.018766240015398047,0.002424213261475807
0.006255413338466015,-0.018766240015398047,-0.07135285343085429,-0.07877706669233007,0.1067534404773394,-0.01251082667693203,-0.040075786738524216,-0.02502165335386406,-0.04124458666153399,-0.006255413338466015,-0.009967519969203911,0.018766240015398047,0.007424213261475792
0.006255413338466015,-0.018766240015398047,-0.06885285343085429,-0.08127706669233008,0.08175344047733937,-0.01251082667693203,-0.037575786738524214,-0.02502165335386406,-0.04374458666153399,-0.006255413338466015,-0.012467519969203911,0.018766240015398047,0.012424213261475794
0.006255413338466015,-0.016309546723126164,-0.06880954672312617,-0.07886368010778631,0.07886368010778631,-0.01251082667693203,-0.03507578673852421,-0.02502165335386406,-0.04378789336926211,-0.006255413338466015,-0.01251082667693203,0.016309546723126164,0.010054133384660147
0.006255413338466015,-0.013809546723126169,-0.06880954672312617,-0.07636368010778632,0.07636368010778632,-0.01251082667693203,-0.032575786738524216,-0.02502165335386406,-0.04378789336926211,-0.006255413338466015,-0.01251082667693203,0.013809546723126169,0.007554133384660154
0.007456693292271879,-0.014913386584543758,-0.07001082667693204,-0.07626624001539806,0.07626624001539806,-0.011309546723126167,-0.03007578673852421,-0.026222933307669925,-0.04378789336926211,-0.006255413338466015,-0.01251082667693203,0.01251082667693203,0.0050541333846601515
0.00995669329227188,-0.01991338658454376,-0.07251082667693204,-0.07876624001539805,0.07876624001539805,-0.008809546723126166,-0.027575786738524212,-0.028722933307669923,-0.04378789336926211,-0.006255413338466015,-0.01251082667693203,0.01251082667693203,0.0025541333846601506
0.012456693292271882,-0.024913386584543763,-0.07501082667693204,-0.08126624001539805,0.08126624001539805,-0.006309546723126165,-0.02507578673852421,-0.031222933307669926,-0.04378789336926211,-0.006255413338466015,-0.01251082667693203,0.01251082667693203,5.41333846601497e-05
0.01251082667693203,-0.027467519969203918,-0.07751082667693204,-0.08376624001539805,0.07887450678471834,-0.006255413338466015,-0.02502165335386406,-0.033722933307669935,-0.04623375998460196,-0.0038095467231261592,-0.010064960061592174,0.01251082667693203,0.0
0.01251082667693203,-0.029967519969203913,-0.08001082667693203,-0.08626624001539805,0.07637450678471835,-0.006255413338466015,-0.02502165335386406,-0.03622293330766993,-0.04873375998460196,-0.001309546723126163,-0.007564960061592178,0.01251082667693203,0.0
0.01251082667693203,-0.030086613415456234,-0.08251082667693203,-0.08876624001539805,0.07506496006159219,-0.005064960061592174,-0.02502165335386406,-0.03872293330766993,-0.05004330670772812,0.0,-0.006255413338466015,0.01251082667693203,-0.0011904532768738404
0.01251082667693203,-0.027586613415456235,-0.08501082667693204,-0.09126624001539806,0.07506496006159219,-0.0025649600615921734,-0.02502165335386406,-0.041222933307669934,-0.05004330670772812,0.0,-0.006255413338466015,0.01251082667693203,-0.003690453276873842
0.01251082667693203,-0.02508661341545624,-0.08751082667693204,-0.09376624001539804,0.07506496006159219,-6.49600615921812e-05,-0.02502165335386406,-0.04372293330766993,-0.05004330670772812,0.0,-0.006255413338466015,0.01251082667693203,-0.006190453276873834
0.01251082667693203,-0.02502165335386406,-0.08757578673852422,-0.09626624001539805,0.07506496006159219,0.0024350399384078245,-0.022586613415456237,-0.04378789336926211,-0.052478346646135945,0.0024350399384078245,-0.006255413338466015,0.01251082667693203,-0.006255413338466015
0.01251082667693203,-0.02502165335386406,-0.08757578673852422,-0.09876624001539806,0.07506496006159219,0.004935039938407829,-0.02008661341545623,-0.04378789336926211,-0.05497834664613595,0.004935039938407829,-0.006255413338466015,0.01251082667693203,-0.006255413338466015
0.01251082667693203,-0.02620127995380588,-0.08757578673852422,-0.10008661341545624,0.07506496006159219,0.006255413338466015,-0.018766240015398047,-0.04378789336926211,-0.056298720046194135,0.006255413338466015,-0.005075786738524197,0.013690453276873848,-0.007435039938407833
0.01251082667693203,-0.028701279953805878,-0.08757578673852422,-0.10008661341545624,0.07506496006159219,0.006255413338466015,-0.018766240015398047,-0.04378789336926211,-0.056298720046194135,0.006255413338466015,-0.0025757867385241963,0.01619045327687385,-0.009935039938407834
0.01251082667693203,-0.03120127995380588,-0.08757578673852422,-0.10008661341545624,0.07506496006159219,0.006255413338466015,-0.018766240015398047,-0.04378789336926211,-0.056298720046194135,0.006255413338466015,-7.578673852419535e-05,0.018690453276873853,-0.012435039938407836
0.01251082667693203,-0.03370127995380588,-0.09242421326147583,-0.10008661341545624,0.07506496006159219,0.008679626599941821,-0.01634202675392224,-0.04378789336926211,-0.056298720046194135,0.006255413338466015,0.0,0.018766240015398047,-0.014935039938407838
0.01251082667693203,-0.03620127995380587,-0.0974242132614758,-0.10008661341545624,0.07506496006159219,0.011179626599941806,-0.013842026753922255,-0.04378789336926211,-0.056298720046194135,0.006255413338466015,0.0,0.018766240015398047,-0.017435039938407823
0.01251082667693203,-0.03636368010778632,-0.09891781349244647,-0.10125541333846602,0.07506496006159219,0.01251082667693203,-0.01251082667693203,-0.04378789336926211,-0.056298720046194135,0.005086613415456237,0.0,0.018766240015398047,-0.01759744009238827
0.01251082667693203,-0.033863680107786315,-0.09641781349244646,-0.10375541333846602,0.07506496006159219,0.01251082667693203,-0.01251082667693203,-0.04378789336926211,-0.056298720046194135,0.0025866134154562364,0.0,0.018766240015398047,-0.015097440092388267
0.01251082667693203,-0.03136368010778631,-0.09391781349244646,-0.10625541333846603,0.07506496006159219,0.01251082667693203,-0.01251082667693203,-0.04378789336926211,-0.056298720046194135,8.661341545623553e-05,0.0,0.018766240015398047,-0.012597440092388265
0.01251082667693203,-0.028863680107786307,-0.09141781349244646,-0.10875541333846603,0.07747834664613595,0.01251082667693203,-0.01251082667693203,-0.04378789336926211,-0.05388533346165037,0.0,-0.0024133865845437667,0.01635285343085428,-0.01251082667693203
0.01251082667693203,-0.026363680107786308,-0.08891781349244646,-0.11125541333846603,0.07997834664613596,0.01251082667693203,-0.01251082667693203,-0.04378789336926211,-0.05138533346165037,0.0,-0.004913386584543768,0.013852853430854278,-0.01251082667693203
0.01251082667693203,-0.026179626599941816,-0.08873375998460196,-0.11259744009238827,0.08247834664613596,0.013668799923009785,-0.01251082667693203,-0.04262992012318435,-0.05004330670772812,0.0,-0.006255413338466015,0.011352853430854275,-0.01251082667693203
0.01251082667693203,-0.028679626599941797,-0.09123375998460195,-0.11259744009238827,0.08497834664613593,0.01616879992300977,-0.01251082667693203,-0.04012992012318437,-0.05004330670772812,0.0,-0.006255413338466015,0.008852853430854292,-0.01251082667693203
0.01251082667693203,-0.0311796265999418,-0.09373375998460196,-0.11259744009238827,0.08747834664613593,0.018668799923009773,-0.01251082667693203,-0.03762992012318437,-0.05004330670772812,0.0,-0.006255413338466015,0.006352853430854291,-0.01251082667693203
0.01251082667693203,-0.0336796265999418,-0.09623375998460196,-0.115,0.08517322683091248,0.018766240015398047,-0.01251082667693203,-0.037532480030796095,-0.05004330670772812,0.0,-0.006255413338466015,0.006255413338466015,-0.014913386584543758
0.01251082667693203,-0.036179626599941804,-0.09873375998460196,-0.11750000000000001,0.08267322683091248,0.018766240015398047,-0.01251082667693203,-0.037532480030796095,-0.05004330670772812,0.0,-0.006255413338466015,0.006255413338466015,-0.01741338658454376
0.01251082667693203,-0.036385333461650377,-0.09893946684631053,-0.12000000000000001,0.0813203734000582,0.019913386584543762,-0.01251082667693203,-0.037532480030796095,-0.05004330670772812,0.0,-0.006255413338466015,0.0051082667693203,-0.017619093446252333
0.01251082667693203,-0.033885333461650374,-0.09643946684631052,-0.1225,0.0813203734000582,0.02241338658454376,-0.01251082667693203,-0.037532480030796095,-0.05004330670772812,0.0,-0.006255413338466015,0.0026082667693202994,-0.01511909344625233
0.01251082667693203,-0.03138533346165037,-0.09393946684631052,-0.125,0.0813203734000582,0.024913386584543763,-0.01251082667693203,-0.037532480030796095,-0.05004330670772812,0.0,-0.006255413338466015,0.00010826676932029853,-0.012619093446252328
0.014902559907611742,-0.031277066692330074,-0.09622293330766994,-0.1275,0.08371210663073791,0.027413386584543772,-0.010119093446252319,-0.037532480030796095,-0.04765157347704841,0.0023917332306797106,-0.0038636801077863046,0.0023917332306797106,-0.01251082667693203
0.01740255990761175,-0.031277066692330074,-0.09872293330766994,-0.13000000000000003,0.08621210663073792,0.029913386584543778,-0.0076190934462523115,-0.037532480030796095,-0.0451515734770484,0.004891733230679719,-0.0013636801077862963,0.004891733230679719,-0.01251082667693203
0.018766240015398047,-0.03241338658454377,-0.10008661341545624,-0.1336363198922137,0.09325738619959267,0.03241338658454377,-0.006255413338466015,-0.037532480030796095,-0.04265157347704842,0.006255413338466015,0.0,0.006255413338466015,-0.01251082667693203
0.018766240015398047,-0.03491338658454377,-0.10008661341545624,-0.1386363198922137,0.10575738619959268,0.03491338658454377,-0.006255413338466015,-0.037532480030796095,-0.04015157347704842,0.006255413338466015,0.0,0.006255413338466015,-0.01251082667693203
0.018766240015398047,-0.037413386584543774,-0.10008661341545624,-0.1436363198922137,0.1182573861995927,0.037413386584543774,-0.006255413338466015,-0.037532480030796095,-0.037651573477048415,0.006255413338466015,0.0,0.006255413338466015,-0.01251082667693203
0.018766240015398047,-0.037532480030796095,-0.10246751996920393,-0.14387450678471836,0.12361466653834965,0.03991338658454378,-0.0038745067847183344,-0.037532480030796095,-0.037532480030796095,0.008636319892213695,0.002380906553747681,0.008636319892213695,-0.014891733230679712
0.018766240015398047,-0.037532480030796095,-0.10496751996920393,-0.14387450678471836,0.12861466653834966,0.04241338658454378,-0.001374506784718333,-0.037532480030796095,-0.037532480030796095,0.011136319892213697,0.004880906553747682,0.011136319892213697,-0.017391733230679714
0.017640746800116378,-0.03865797324607776,-0.10634202675392226,-0.14500000000000002,0.12235973438553296,0.04603887979982545,0.0,-0.037532480030796095,-0.037532480030796095,0.0136363198922137,0.006255413338466015,0.0136363198922137,-0.019891733230679717
0.015140746800116376,-0.04115797324607776,-0.10634202675392226,-0.14750000000000002,0.10235973438553296,0.05103887979982545,0.0,-0.037532480030796095,-0.037532480030796095,0.016136319892213702,0.006255413338466015,0.016136319892213702,-0.022391733230679715
0.012640746800116391,-0.043657973246077744,-0.10634202675392226,-0.15000000000000002,0.0823597343855331,0.056038879799825414,0.0,-0.037532480030796095,-0.037532480030796095,0.018636319892213687,0.006255413338466015,0.018636319892213687,-0.0248917332306797
0.01251082667693203,-0.04378789336926211,-0.10634202675392226,-0.15487007987681564,0.0813203734000582,0.05866879992300977,0.0,-0.037532480030796095,-0.03990255990761173,0.016396160138582406,0.008625493215281655,0.018766240015398047,-0.02502165335386406
0.01251082667693203,-0.04378789336926211,-0.10634202675392226,-0.15987007987681565,0.0813203734000582,0.061168799923009776,0.0,-0.037532480030796095,-0.042402559907611735,0.013896160138582404,0.011125493215281657,0.018766240015398047,-0.02502165335386406
0.01251082667693203,-0.04378789336926211,-0.10634202675392226,-0.16375541333846602,0.08020570686170857,0.06366879992300978,0.0,-0.037532480030796095,-0.04378789336926211,0.014740159753631294,0.01251082667693203,0.01988090655374768,-0.02502165335386406
0.01251082667693203,-0.04378789336926211,-0.10634202675392226,-0.16625541333846602,0.07770570686170857,0.0661687999230098,0.0,-0.037532480030796095,-0.04378789336926211,0.01974015975363131,0.01251082667693203,0.022380906553747686,-0.02502165335386406
0.01251082667693203,-0.04378789336926211,-0.10634202675392226,-0.16875541333846605,0.07520570686170855,0.06866879992300981,0.0,-0.037532480030796095,-0.04378789336926211,0.02474015975363133,0.01251082667693203,0.024880906553747695,-0.02502165335386406
0.01251082667693203,-0.04378789336926211,-0.10634202675392226,-0.1688961601385824,0.07270570686170856,0.0711687999230098,0.0,-0.037532480030796095,-0.04378789336926211,0.022662400153980432,0.01251082667693203,0.022662400153980432,-0.022662400153980432
0.01251082667693203,-0.04378789336926211,-0.10634202675392226,-0.1688961601385824,0.07020570686170856,0.0736687999230098,0.0,-0.037532480030796095,-0.04378789336926211,0.02016240015398044,0.01251082667693203,0.02016240015398044,-0.02016240015398044
0.01251082667693203,-0.0426840535078445,-0.10523818689250465,-0.17,0.07101722644596138,0.07506496006159219,0.0,-0.037532480030796095,-0.04378789336926211,0.018766240015398047,0.01140698681551442,0.018766240015398047,-0.018766240015398047
0.01251082667693203,-0.04018405350784449,-0.10273818689250465,-0.17250000000000004,0.0760172264459614,0.07506496006159219,0.0,-0.037532480030796095,-0.04378789336926211,0.018766240015398047,0.008906986815514413,0.018766240015398047,-0.018766240015398047
0.01251082667693203,-0.037684053507844484,-0.10023818689250463,-0.17500000000000004,0.08101722644596142,0.07506496006159219,0.0,-0.037532480030796095,-0.04378789336926211,0.018766240015398047,0.006406986815514404,0.018766240015398047,-0.018766240015398047
0.014859253199883637,-0.037532480030796095,-0.10008661341545624,-0.17515157347704843,0.08366879992300981,0.07741338658454379,0.0,-0.037532480030796095,-0.04378789336926211,0.018766240015398047,0.006255413338466015,0.018766240015398047,-0.018766240015398047
0.017359253199883632,-0.037532480030796095,-0.10008661341545624,-0.17515157347704843,0.0861687999230098,0.07991338658454378,0.0,-0.037532480030796095,-0.04378789336926211,0.018766240015398047,0.006255413338466015,0.018766240015398047,-0.018766240015398047
0.018766240015398047,-0.037532480030796095,-0.1011796265999418,-0.17624458666153398,0.08538976036955312,0.08241338658454375,0.0,-0.038625493215281644,-0.04378789336926211,0.018766240015398047,0.006255413338466015,0.018766240015398047,-0.018766240015398047
0.018766240015398047,-0.037532480030796095,-0.1036796265999418,-0.178744586661534,0.0803897603695531,0.08491338658454375,0.0,-0.04112549321528165,-0.04378789336926211,0.018766240015398047,0.006255413338466015,0.018766240015398047,-0.018766240015398047
0.018766240015398047,-0.037532480030796095,-0.10617962659994182,-0.181244586661534,0.07538976036955308,0.08741338658454377,0.0,-0.04362549321528166,-0.04378789336926211,0.018766240015398047,0.006255413338466015,0.018766240015398047,-0.018766240015398047
0.018766240015398047,-0.035194880184776546,-0.10634202675392226,-0.18374458666153398,0.07506496006159219,0.08991338658454376,0.0,-0.04378789336926211,-0.04378789336926211,0.018766240015398047,0.006255413338466015,0.021103839861417596,-0.0164286401693785
0.018766240015398047,-0.03269488018477655,-0.10634202675392226,-0.18624458666153398,0.07506496006159219,0.09241338658454375,0.0,-0.04378789336926211,-0.04378789336926211,0.018766240015398047,0.006255413338466015,0.023603839861417588,-0.013928640169378503
0.018766240015398047,-0.031277066692330074,-0.1041776537388152,-0.18766240015398045,0.07506496006159219,0.09491338658454375,0.0,-0.044870079876815634,-0.04378789336926211,0.017684053507844518,0.005173226830912487,0.02393946684631053,-0.01251082667693203
0.018766240015398047,-0.031277066692330074,-0.09917765373881518,-0.18766240015398045,0.07506496006159219,0.09741338658454377,0.0,-0.04737007987681564,-0.04378789336926211,0.015184053507844509,0.002673226830912478,0.021439466846310526,-0.01251082667693203
0.018766240015398047,-0.031277066692330074,-0.09417765373881516,-0.18766240015398045,0.07506496006159219,0.09991338658454377,0.0,-0.04987007987681565,-0.04378789336926211,0.0126840535078445,0.0001732268309124702,0.018939466846310517,-0.01251082667693203
0.018766240015398047,-0.028950293523242538,-0.09150442690790268,-0.18766240015398045,0.07506496006159219,0.10241338658454378,0.0023267731690875385,-0.04771653353864058,-0.04378789336926211,0.01251082667693203,0.0,0.018766240015398047,-0.010184053507844492
0.018766240015398047,-0.02645029352324253,-0.08900442690790268,-0.18766240015398045,0.07506496006159219,0.1049133865845438,0.004826773169087547,-0.04521653353864058,-0.04378789336926211,0.01251082667693203,0.0,0.018766240015398047,-0.007684053507844483
0.018766240015398047,-0.02502165335386406,-0.08757578673852422,-0.18766240015398045,0.07292224040034911,0.10848474641516533,0.00946949283033062,-0.04378789336926211,-0.04485925319988364,0.01251082667693203,0.0010713598306215345,0.018766240015398047,-0.006255413338466015
0.018766240015398047,-0.02502165335386406,-0.08757578673852422,-0.18766240015398045,0.06792224040034912,0.11348474641516532,0.016969492830330606,-0.04378789336926211,-0.047359253199883634,0.01251082667693203,0.003571359830621529,0.018766240015398047,-0.006255413338466015
0.018766240015398047,-0.02502165335386406,-0.08757578673852422,-0.18766240015398045,0.06292224040034913,0.1184847464151653,0.024469492830330584,-0.04378789336926211,-0.04985925319988363,0.01251082667693203,0.006071359830621524,0.018766240015398047,-0.006255413338466015
0.018766240015398047,-0.02502165335386406,-0.08757578673852422,-0.18766240015398045,0.06255413338466015,0.11885285343085429,0.03428543932248612,-0.05073573284572865,-0.05467519969203915,0.01251082667693203,0.006255413338466015,0.018766240015398047,-0.006255413338466015
0.018766240015398047,-0.02502165335386406,-0.08757578673852422,-0.18766240015398045,0.06255413338466015,0.11885285343085429,0.04428543932248616,-0.05823573284572868,-0.05967519969203917,0.01251082667693203,0.006255413338466015,0.018766240015398047,-0.006255413338466015
0.018766240015398047,-0.023961120200174584,-0.08757578673852422,-0.18660186700029097,0.061493600230970676,0.1358213838898859,0.052164373015107075,-0.06679626599941806,-0.06573573284572858,0.01251082667693203,0.006255413338466015,0.01770570686170857,-0.0051948801847765385
0.018766240015398047,-0.021461120200174592,-0.08757578673852422,-0.184101867000291,0.05899360023097068,0.17582138388988583,0.05716437301510706,-0.07679626599941804,-0.07323573284572857,0.01251082667693203,0.006255413338466015,0.015205706861708575,-0.0026948801847765437
0.018766240015398047,-0.018961120200174597,-0.08757578673852422,-0.181601867000291,0.056493600230970685,0.21582138388988575,0.06216437301510705,-0.08679626599941802,-0.08073573284572855,0.01251082667693203,0.006255413338466015,0.01270570686170858,-0.0001948801847765488
0.018766240015398047,-0.018766240015398047,-0.08757578673852422,-0.18140698681551445,0.053993600230970676,0.21893946684631052,0.0879104513521182,-0.10140650562986496,-0.09284597247617549,0.01481594649215549,0.006255413338466015,0.01251082667693203,0.0
0.018766240015398047,-0.018766240015398047,-0.08757578673852422,-0.18140698681551445,0.051493600230970674,0.21893946684631052,0.11541045135211829,-0.11640650562986501,-0.10534597247617553,0.0173159464921555,0.006255413338466015,0.01251082667693203,0.0
0.0198159464921555,-0.0198159464921555,-0.08757578673852422,-0.17825786738524207,0.04899360023097067,0.21893946684631052,0.1177174959099394,-0.13140650562986503,-0.11679626599941809,0.018766240015398047,0.006255413338466015,0.013560533153689484,-0.0010497064767574541
0.022315946492155493,-0.022315946492155493,-0.08757578673852422,-0.1707578673852421,0.046493600230970676,0.21893946684631052,0.08521749590993949,-0.14640650562986499,-0.12679626599941807,0.018766240015398047,0.006255413338466015,0.01606053315368948,-0.0035497064767574488
0.02481594649215549,-0.02481594649215549,-0.08757578673852422,-0.16325786738524212,0.04399360023097068,0.21893946684631052,0.05271749590993956,-0.16140650562986497,-0.13679626599941805,0.018766240015398047,0.006255413338466015,0.018560533153689475,-0.006049706476757444
0.02502165335386406,-0.02502165335386406,-0.08757578673852422,-0.15805216052353352,0.04149360023097067,0.17534789721877325,0.029394668463105202,-0.17181791935328214,-0.14909055913770952,0.018766240015398047,0.006255413338466015,0.018766240015398047,-0.006255413338466015
0.02502165335386406,-0.02502165335386406,-0.08757578673852422,-0.15305216052353351,0.03899360023097066,0.1278478972187731,0.006894668463105123,-0.18181791935328218,-0.16159055913770956,0.018766240015398047,0.006255413338466015,0.018766240015398047,-0.006255413338466015
0.02502165335386406,-0.02502165335386406,-0.08757578673852422,-0.14909104032335896,0.03649360023097066,0.10008661341545624,-0.01976085073619662,-0.19181791935328218,-0.1720127995380587,0.018766240015398047,0.006255413338466015,0.018766240015398047,-0.006255413338466015
0.02502165335386406,-0.02502165335386406,-0.08757578673852422,-0.14659104032335896,0.033993600230970665,0.10008661341545624,-0.05226085073619655,-0.20181791935328217,-0.17951279953805868,0.018766240015398047,0.006255413338466015,0.018766240015398047,-0.006255413338466015
0.02502165335386406,-0.02502165335386406,-0.08757578673852422,-0.14409104032335895,0.03149360023097067,0.10008661341545624,-0.08476085073619649,-0.21181791935328215,-0.18701279953805866,0.018766240015398047,0.006255413338466015,0.018766240015398047,-0.006255413338466015
0.02502165335386406,-0.02730511981522347,-0.08985925319988362,-0.13930757386199952,0.028993600230970664,0.09551968049273742,-0.12867818304299364,-0.21040058704648512,-0.18994586661533985,0.016482773554038634,0.006255413338466015,0.018766240015398047,-0.006255413338466015
0.02502165335386406,-0.02980511981522348,-0.09235925319988363,-0.1343075738619995,0.026493600230970655,0.0905196804927374,-0.17367818304299382,-0.2079005870464851,-0.19244586661533988,0.013982773554038624,0.006255413338466015,0.018766240015398047,-0.006255413338466015
0.02502165335386406,-0.03230511981522349,-0.09485925319988364,-0.12725146761621267,0.023993600230970646,0.0855196804927374,-0.21353791742852687,-0.2054005870464851,-0.19700197286112672,0.011482773554038615,0.006255413338466015,0.018766240015398047,-0.0072834664613594296
0.02502165335386406,-0.0348051198152235,-0.09735925319988364,-0.11725146761621263,0.02149360023097064,0.08051968049273737,-0.246037917428527,-0.2029005870464851,-0.20450197286112676,0.008982773554038608,0.006255413338466015,0.018766240015398047,-0.009783466461359438
0.02502165335386406,-0.03730511981522348,-0.09985925319988362,-0.10725146761621274,0.018993600230970666,0.07551968049273743,-0.2785379174285266,-0.2004005870464851,-0.21200197286112668,0.006482773554038634,0.006255413338466015,0.018766240015398047,-0.012283466461359412
0.02502165335386406,-0.03525984024636872,-0.09781397363102887,-0.10179674718506751,0.018766240015398047,0.07051968049273744,-0.30421999807524447,-0.20244586661533986,-0.22177461264555404,0.006255413338466015,0.003982773554038638,0.014220960446543293,-0.01251082667693203
0.02502165335386406,-0.032759840246368715,-0.09531397363102886,-0.0967967471850675,0.018766240015398047,0.06551968049273743,-0.3292199980752444,-0.20494586661533987,-0.23177461264555402,0.006255413338466015,0.0014827735540386437,0.009220960446543303,-0.01251082667693203
0.02502165335386406,-0.029242613800407363,-0.09383120007699022,-0.09179674718506751,0.01774901356943669,0.060519680492737433,-0.36439226253485796,-0.20744586661533987,-0.241774612645554,0.006255413338466015,0.0,0.006255413338466015,-0.010476373785009317
0.02502165335386406,-0.024242613800407348,-0.09383120007699022,-0.0867967471850675,0.01524901356943668,0.05551968049273742,-0.41439226253485817,-0.20994586661533987,-0.25177461264555406,0.006255413338466015,0.0,0.006255413338466015,-0.0054763737850093
0.02502165335386406,-0.01924261380040733,-0.09383120007699022,-0.08179674718506748,0.012749013569436671,0.050519680492737404,-0.4643922625348583,-0.21244586661533987,-0.2617746126455541,0.006255413338466015,0.0,0.006255413338466015,-0.0004763737850092837
0.02502165335386406,-0.018766240015398047,-0.09383120007699022,-0.07453493407757213,0.01251082667693203,0.04551968049273741,-0.4352288037725208,-0.2194694928303306,-0.2717746126455541,0.006255413338466015,0.0,0.006255413338466015,0.0
0.02502165335386406,-0.018766240015398047,-0.09383120007699022,-0.06703493407757215,0.01251082667693203,0.04051968049273743,-0.3977288037725209,-0.22696949283033058,-0.28177461264555403,0.006255413338466015,0.0,0.006255413338466015,0.0
0.02502165335386406,-0.020779039553456714,-0.09383120007699022,-0.05953493407757215,0.01251082667693203,0.034513280723708094,-0.3692864016937849,-0.23145029352324256,-0.2897618131074954,0.007261813107495349,0.001006399769029334,0.006255413338466015,-0.002012799538058668
0.02502165335386406,-0.02577903955345673,-0.09383120007699022,-0.05203493407757212,0.01251082667693203,0.027013280723708066,-0.35428640169378484,-0.23145029352324256,-0.2947618131074954,0.009761813107495357,0.0035063997690293423,0.006255413338466015,-0.0070127995380586845
0.02502165335386406,-0.030779039553456747,-0.09383120007699022,-0.0445349340775721,0.01251082667693203,0.01951328072370804,-0.3392864016937848,-0.23145029352324256,-0.29976181310749545,0.012261813107495367,0.0060063997690293506,0.006255413338466015,-0.012012799538058701
0.02502165335386406,-0.031277066692330074,-0.09608218650755355,-0.039285920508135445,0.010259840246368699,0.012013280723708053,-0.26801174092970154,-0.2134424020787359,-0.2845029352324254,0.01251082667693203,0.006255413338466015,0.006255413338466015,-0.01251082667693203
0.02502165335386406,-0.031277066692330074,-0.09858218650755356,-0.034285920508135455,0.007759840246368705,0.004513280723708067,-0.19051174092970172,-0.19344240207873598,-0.26700293523242546,0.01251082667693203,0.006255413338466015,0.006255413338466015,-0.01251082667693203
0.02502165335386406,-0.030281493600232762,-0.10008661341545624,-0.029285920508135454,0.006255413338466015,0.0,-0.15383023770569146,-0.17244682898663866,-0.24452506977193889,0.01151525358483472,0.006255413338466015,0.006255413338466015,-0.01151525358483472
0.02502165335386406,-0.027781493600232757,-0.10008661341545624,-0.02428592050813544,0.006255413338466015,0.0,-0.17883023770569156,-0.14994682898663858,-0.2145250697719388,0.009015253584834711,0.006255413338466015,0.006255413338466015,-0.009015253584834711
0.02502165335386406,-0.025281493600232782,-0.10008661341545624,-0.01928592050813549,0.006255413338466015,0.0,-0.20383023770569128,-0.12744682898663878,-0.1845250697719391,0.006515253584834737,0.006255413338466015,0.006255413338466015,-0.006515253584834737
0.022781493600232777,-0.027261813107495345,-0.10008661341545624,-0.01652608026176676,0.004015253584834729,-0.004480319507262573,-0.18178688287943434,-0.10270666923300743,-0.1567652295255703,0.006255413338466015,0.006255413338466015,0.006255413338466015,-0.008495573092097301
0.020281493600232767,-0.029761813107495354,-0.10008661341545624,-0.01402608026176675,0.00151525358483472,-0.00948031950726259,-0.15428688287943426,-0.07770666923300734,-0.1292652295255702,0.006255413338466015,0.006255413338466015,0.006255413338466015,-0.01099557309209731
0.018766240015398047,-0.031277066692330074,-0.10008661341545624,-0.011526080261766748,0.0,-0.011526080261766748,-0.13171061495526065,-0.05172192281784204,-0.10078048311040488,0.0072401597536312975,0.006255413338466015,0.006255413338466015,-0.01251082667693203
0.018766240015398047,-0.031277066692330074,-0.10008661341545624,-0.009026080261766753,0.0,-0.009026080261766753,-0.11671061495526067,-0.024221922817842093,-0.07078048311040494,0.009740159753631293,0.006255413338466015,0.006255413338466015,-0.01251082667693203
0.018766240015398047,-0.031277066692330074,-0.10008661341545624,-0.0065260802617667585,0.0,-0.0065260802617667585,-0.10171061495526071,0.0032780771821578486,-0.040780483110405025,0.012240159753631286,0.006255413338466015,0.006255413338466015,-0.01251082667693203
0.018766240015398047,-0.026818400538931572,-0.09785728033875699,-0.004026080261766764,0.0,-0.006255413338466015,-0.08448128187856148,0.03523674333555628,-0.004092483880307328,0.01028149360023278,0.004026080261766764,0.006255413338466015,-0.008052160523533528
0.018766240015398047,-0.021818400538931585,-0.095357280338757,-0.0015260802617667688,0.0,-0.006255413338466015,-0.06698128187856153,0.06773674333555621,0.0334075161196926,0.007781493600232784,0.0015260802617667688,0.006255413338466015,-0.0030521605235335376
0.018766240015398047,-0.018766240015398047,-0.09188336060052375,0.0,0.0,-0.008203252814932487,-0.05142912135502795,0.09828890385908981,0.06993359638145945,0.006255413338466015,0.0,0.005281493600232779,0.000973919738233236
0.018766240015398047,-0.018766240015398047,-0.0868833606005237,0.0,0.0,-0.013203252814932533,-0.038929121355027844,0.12578890385909006,0.10493359638145977,0.006255413338466015,0.0,0.002781493600232757,0.003473919738233258
0.018766240015398047,-0.018766240015398047,-0.08188336060052366,0.0,0.0,-0.018203252814932576,-0.026429121355027733,0.15328890385909028,0.13993359638146008,0.006255413338466015,0.0,0.0002814936002327349,0.00597391973823328
0.02098474641516531,-0.012110720816096258,-0.07910186700029094,0.0022185063997672634,0.0,-0.018766240015398047,-0.018366134154562272,0.17413338465978848,0.16384106438262372,0.006255413338466015,0.0,0.0,0.010692426138000543
0.023484746415165306,-0.004610720816096273,-0.07660186700029095,0.004718506399767258,0.0,-0.018766240015398047,-0.010866134154562286,0.19413338465978844,0.18634106438262368,0.006255413338466015,0.0,0.0,0.015692426138000534
0.02502165335386406,0.0019261861226024743,-0.07506496006159219,0.006255413338466015,0.0,-0.018766240015398047,-0.004329227215863541,0.21124410547588468,0.2059517851987199,0.006255413338466015,0.0,0.0,0.02069242613800052
0.02502165335386406,0.006926186122602464,-0.07506496006159219,0.006255413338466015,0.0,-0.018766240015398047,0.0006707727841364485,0.22374410547588466,0.22095178519871989,0.006255413338466015,0.0,0.0,0.025692426138000508
0.02502165335386406,0.011926186122602453,-0.07506496006159219,0.006255413338466015,0.0,-0.018766240015398047,0.005670772784136437,0.23624410547588465,0.23595178519871984,0.006255413338466015,0.0,0.0,0.030692426138000495
0.027229333076699266,0.014718506399767236,-0.07064960061592178,0.00846309306130122,-0.002207679722835206,-0.016558560292562842,0.00846309306130122,0.2487441054758846,0.2509517851987198,0.00404773361563081,0.0,0.0,0.035692426138000485
0.02972933307669926,0.01721850639976723,-0.06564960061592179,0.010963093061301216,-0.004707679722835201,-0.014058560292562847,0.010963093061301216,0.26124410547588456,0.26595178519871976,0.0015477336156308145,0.0,0.0,0.040692426138000476
0.032229333076699264,0.020670772784136426,-0.06255413338466015,0.01251082667693203,-0.005303146954096825,-0.013463093061301222,0.013463093061301222,0.26993503993840784,0.2780949860456122,0.0,0.0,0.0,0.0447401597536313
0.03472933307669929,0.025670772784136472,-0.06255413338466015,0.01251082667693203,-0.0028031469540968027,-0.015963093061301243,0.015963093061301243,0.2724350399384079,0.28559498604561234,0.0,0.0,0.0,0.04724015975363132
0.03722933307669932,0.030670772784136515,-0.06255413338466015,0.01251082667693203,-0.00030314695409678055,-0.018463093061301266,0.018463093061301266,0.2749350399384079,0.2930949860456124,0.0,0.0,0.0,0.049740159753631344
0.03972933307669931,0.037867625830039726,-0.058160427292853714,0.01251082667693203,0.0,-0.018766240015398047,0.018766240015398047,0.2840255990761176,0.29839813299970913,0.0021968530459032178,0.0,0.0,0.056633865845437774
0.04222933307669931,0.04536762583003971,-0.053160427292853724,0.01251082667693203,0.0,-0.018766240015398047,0.018766240015398047,0.2940255990761175,0.30339813299970914,0.004696853045903213,0.0,0.0,0.06413386584543776
0.04567077278413649,0.05004330670772812,-0.051926186122602504,0.010627947262057647,-0.0018828794148743832,-0.017824800307960856,0.01970767972283524,0.30120127995380597,0.30745669329227193,0.005313973631028823,0.0,0.0,0.06880954672312617
0.05067077278413648,0.05004330670772812,-0.056926186122602494,0.005627947262057658,-0.0068828794148743724,-0.015324800307960861,0.022207679722835234,0.3037012799538059,0.30995669329227193,0.002813973631028829,0.0,0.0,0.06880954672312617
0.055670772784136326,0.05004330670772812,-0.06192618612260234,0.000627947262057808,-0.011882879414874222,-0.012824800307960935,0.024707679722835156,0.3062012799538058,0.3124566932922718,0.000313973631028904,0.0,0.0,0.06880954672312617
0.056298720046194135,0.04785728033875701,-0.06255413338466015,0.0,-0.01251082667693203,-0.010324800307960916,0.02502165335386406,0.31088730632277695,0.31714271966124297,-0.0021860263689711147,0.0,0.0,0.06662352035415506
0.056298720046194135,0.04535728033875699,-0.06255413338466015,0.0,-0.01251082667693203,-0.007824800307960893,0.02502165335386406,0.315887306322777,0.322142719661243,-0.004686026368971137,0.0,0.0,0.06412352035415503
0.05722933307669927,0.04285728033875697,-0.06441535944567042,0.0009306130305051341,-0.01251082667693203,-0.006255413338466015,0.02502165335386406,0.31902608026176676,0.3252814936002328,-0.006255413338466015,-0.0009306130305051341,0.0,0.06162352035415501
0.05972933307669926,0.04035728033875698,-0.06941535944567041,0.0034306130305051287,-0.01251082667693203,-0.006255413338466015,0.02502165335386406,0.31902608026176676,0.3252814936002328,-0.006255413338466015,-0.0034306130305051287,0.0,0.059123520354155024
0.062229333076699256,0.03785728033875699,-0.0744153594456704,0.005930613030505123,-0.01251082667693203,-0.006255413338466015,0.02502165335386406,0.31902608026176676,0.3252814936002328,-0.006255413338466015,-0.005930613030505123,0.0,0.05662352035415503
0.06255413338466015,0.03535728033875699,-0.07724015975363129,0.006255413338466015,-0.01251082667693203,-0.004080213646426913,0.02502165335386406,0.323376479645845,0.329631892984311,-0.008430613030505118,-0.006255413338466015,0.0,0.05412352035415503
0.06255413338466015,0.03285728033875699,-0.07974015975363127,0.006255413338466015,-0.01251082667693203,-0.0015802136464269177,0.02502165335386406,0.328376479645845,0.334631892984311,-0.010930613030505113,-0.006255413338466015,0.0,0.05162352035415504
0.06347391973823323,0.031277066692330074,-0.08224015975363128,0.0053356269848929385,-0.013430613030505106,0.0,0.02502165335386406,0.3315369069386988,0.3377923202771648,-0.01251082667693203,-0.006255413338466015,0.0,0.05004330670772812
0.06597391973823322,0.031277066692330074,-0.08474015975363126,0.002835626984892944,-0.0159306130305051,0.0,0.02502165335386406,0.3315369069386988,0.3377923202771648,-0.01251082667693203,-0.006255413338466015,0.0,0.05004330670772812
0.06847391973823322,0.031277066692330074,-0.08724015975363127,0.00033562698489294964,-0.018430613030505097,0.0,0.02502165335386406,0.3315369069386988,0.3377923202771648,-0.01251082667693203,-0.006255413338466015,0.0,0.05004330670772812
0.07097391973823323,0.031277066692330074,-0.08974015975363128,0.002164373015107069,-0.01660186700029098,-0.002164373015107069,0.02718602636897113,0.33586565296891296,0.342121066307379,-0.01251082667693203,-0.006255413338466015,-0.002164373015107069,0.05220767972283519
0.07347391973823326,0.031277066692330074,-0.0922401597536313,0.004664373015107091,-0.014101867000290955,-0.004664373015107091,0.02968602636897115,0.340865652968913,0.34712106630737904,-0.01251082667693203,-0.006255413338466015,-0.004664373015107091,0.05470767972283521
0.07688287941487437,0.032186026368971166,-0.0956491194302724,0.006255413338466015,-0.01251082667693203,-0.006255413338466015,0.031277066692330074,0.3449566932922719,0.35121210663073793,-0.01251082667693203,-0.007164373015107104,-0.006255413338466015,0.056298720046194135
0.08188287941487435,0.03468602636897116,-0.1006491194302724,0.006255413338466015,-0.01251082667693203,-0.006255413338466015,0.031277066692330074,0.3474566932922719,0.35371210663073793,-0.01251082667693203,-0.009664373015107098,-0.006255413338466015,0.056298720046194135
0.08688287941487434,0.037186026368971156,-0.10564911943027239,0.006255413338466015,-0.01251082667693203,-0.006255413338466015,0.031277066692330074,0.3499566932922719,0.35621210663073793,-0.01251082667693203,-0.012164373015107092,-0.006255413338466015,0.056298720046194135
0.08757578673852422,0.03537893369262104,-0.10849557309209731,0.008408959676641072,-0.01251082667693203,-0.008408959676641072,0.03343061303050513,0.3524566932922719,0.360865652968913,-0.01251082667693203,-0.01251082667693203,-0.006255413338466015,0.05414517370801908
0.08757578673852422,0.032878933692621036,-0.11099557309209732,0.010908959676641067,-0.01251082667693203,-0.010908959676641067,0.03593061303050513,0.3549566932922719,0.36586565296891294,-0.01251082667693203,-0.01251082667693203,-0.006255413338466015,0.05164517370801908
0.08847391973823325,0.028582667693202952,-0.11439370609180635,0.01161269367722299,-0.01251082667693203,-0.01251082667693203,0.037532480030796095,0.35835482629198095,0.3699675199692039,-0.01251082667693203,-0.01251082667693203,-0.006255413338466015,0.047348907708601
0.09097391973823328,0.021082667693202883,-0.1193937060918064,0.009112693677222967,-0.01251082667693203,-0.01251082667693203,0.037532480030796095,0.363354826291981,0.37246751996920396,-0.01251082667693203,-0.01251082667693203,-0.006255413338466015,0.03984890770860093
0.0934739197382333,0.013582667693202821,-0.12439370609180644,0.0066126936772229455,-0.01251082667693203,-0.01251082667693203,0.037532480030796095,0.368354826291981,0.37496751996920397,-0.01251082667693203,-0.01251082667693203,-0.006255413338466015,0.03234890770860086
0.09383120007699022,0.006082667693202823,-0.1315364257530495,0.004112693677222947,-0.01251082667693203,-0.010368107015688962,0.037532480030796095,0.37121210663073795,0.37961023963044704,-0.014653546338175099,-0.01251082667693203,-0.006255413338466015,0.02484890770860087
0.09383120007699022,-0.001417332306797161,-0.1390364257530495,0.0016126936772229514,-0.01251082667693203,-0.007868107015688967,0.037532480030796095,0.37371210663073795,0.38461023963044705,-0.017153546338175094,-0.01251082667693203,-0.006255413338466015,0.017348907708600887
0.09205658743143613,-0.008917332306797143,-0.14387450678471836,0.0,-0.011623520354154988,-0.007142719661243058,0.03841978635357314,0.37709941295351496,0.38783562698489293,-0.018766240015398047,-0.01251082667693203,-0.006255413338466015,0.0098489077086009
0.08705658743143616,-0.01641733230679713,-0.14387450678471836,0.0,-0.009123520354154993,-0.009642719661243053,0.04091978635357313,0.38209941295351496,0.38783562698489293,-0.018766240015398047,-0.01251082667693203,-0.006255413338466015,0.0023489077086009166
0.08205658743143616,-0.023917332306797115,-0.14387450678471836,0.0,-0.006623520354154998,-0.012142719661243048,0.043419786353573124,0.38709941295351497,0.38783562698489293,-0.018766240015398047,-0.01251082667693203,-0.006255413338466015,-0.0051510922913990675
0.0813203734000582,-0.027153546338175072,-0.14813829275334037,0.0,-0.008387306322777026,-0.01037893369262102,0.04378789336926211,0.3899675199692039,0.39209941295351497,-0.016634347031087036,-0.01251082667693203,-0.006255413338466015,-0.008387306322777026
0.0813203734000582,-0.029653546338175067,-0.15313829275334034,0.0,-0.010887306322777021,-0.007878933692621024,0.04378789336926211,0.3924675199692039,0.397099412953515,-0.014134347031087041,-0.01251082667693203,-0.006255413338466015,-0.010887306322777021
0.08044389375421321,-0.033030025984020064,-0.15638533346165037,0.0,-0.01251082667693203,-0.004502454046776025,0.0446643730151071,0.39584399961504896,0.40122293330766995,-0.01251082667693203,-0.011634347031087035,-0.00537893369262102,-0.013387306322777025
0.07794389375421318,-0.03803002598402011,-0.15638533346165037,0.0,-0.01251082667693203,0.0004975459532240191,0.047164373015107126,0.400843999615049,0.40372293330767,-0.01251082667693203,-0.009134347031087012,-0.002878933692620998,-0.01588730632277705
0.07544389375421316,-0.04303002598402016,-0.15638533346165037,0.0,-0.01251082667693203,0.005497545953224063,0.04966437301510715,0.405843999615049,0.40622293330767,-0.01251082667693203,-0.006634347031086991,-0.0003789336926209759,-0.01838730632277707
0.07082282744683428,-0.04590895967664106,-0.15426426715427144,0.0,-0.014631892984310984,0.006255413338466015,0.05004330670772812,0.40872293330766996,0.40872293330766996,-0.01251082667693203,-0.006255413338466015,0.0,-0.023008372630155954
0.06582282744683428,-0.04840895967664106,-0.15176426715427144,0.0,-0.01713189298431098,0.006255413338466015,0.05004330670772812,0.41122293330766996,0.41122293330766996,-0.01251082667693203,-0.006255413338466015,0.0,-0.02800837263015594
0.06168848041574722,-0.051774612645553976,-0.15012992012318438,0.0,-0.01790058704648512,0.005389760369553087,0.05004330670772812,0.41372293330766996,0.41372293330766996,-0.01251082667693203,-0.006255413338466015,0.0,-0.03300837263015593
0.05918848041574723,-0.056774612645553967,-0.15012992012318438,0.0,-0.015400587046485125,0.0028897603695530925,0.05004330670772812,0.41622293330766996,0.41622293330766996,-0.01251082667693203,-0.006255413338466015,0.0,-0.03800837263015592
0.056688480415747235,-0.06177461264555395,-0.15012992012318438,0.0,-0.01290058704648513,0.0003897603695530976,0.05004330670772812,0.41872293330766996,0.41872293330766996,-0.01251082667693203,-0.006255413338466015,0.0,-0.04300837263015591
0.052078240785300295,-0.06466437301510707,-0.15012992012318438,0.0,-0.01251082667693203,0.0,0.05004330670772812,0.42122293330766997,0.42122293330766997,-0.01251082667693203,-0.006255413338466015,0.0,-0.04378789336926211
0.04707824078530025,-0.0671643730151071,-0.15012992012318438,0.0,-0.01251082667693203,0.0,0.05004330670772812,0.42372293330766997,0.42372293330766997,-0.01251082667693203,-0.006255413338466015,0.0,-0.04378789336926211
0.042933067077281166,-0.06966437301510711,-0.15012992012318438,0.0,-0.013365652968912971,0.0008548262919809398,0.04918848041574718,0.42622293330766997,0.42622293330766997,-0.01251082667693203,-0.006255413338466015,0.0,-0.045497545953223986
0.04043306707728118,-0.07216437301510711,-0.15012992012318438,0.0,-0.015865652968912965,0.0033548262919809346,0.04668848041574719,0.42872293330767,0.42872293330767,-0.01251082667693203,-0.006255413338466015,0.0,-0.05049754595322398
0.03793306707728118,-0.0746643730151071,-0.15012992012318438,0.0,-0.01836565296891296,0.0058548262919809295,0.044188480415747196,0.43122293330767,0.43122293330767,-0.01251082667693203,-0.006255413338466015,0.0,-0.05549754595322396
0.03333365412376628,-0.07716437301510709,-0.15012992012318438,-0.0020994129535149082,-0.01666682706188314,0.006255413338466015,0.04378789336926211,0.43372293330767,0.43372293330767,-0.01251082667693203,-0.006255413338466015,0.0020994129535149082,-0.05839813299970904
0.02833365412376629,-0.07966437301510709,-0.15012992012318438,-0.004599412953514903,-0.014166827061883144,0.006255413338466015,0.04378789336926211,0.4362229333076699,0.4362229333076699,-0.01251082667693203,-0.006255413338466015,0.004599412953514903,-0.06089813299970904
0.02417765373881518,-0.08300837263015597,-0.15012992012318438,-0.005411413723417133,-0.01251082667693203,0.005411413723417133,0.04294389375421322,0.4387229333076699,0.43787893369262104,-0.010822827446834266,-0.005411413723417133,0.0070994129535148975,-0.06339813299970903
0.021677653738815184,-0.08800837263015594,-0.15012992012318438,-0.002911413723417138,-0.01251082667693203,0.002911413723417138,0.040443893754213235,0.44122293330766993,0.43787893369262104,-0.005822827446834276,-0.002911413723417138,0.009599412953514892,-0.06589813299970904
0.019177653738815192,-0.09300837263015593,-0.15012992012318438,-0.00041141372341714326,-0.01251082667693203,0.00041141372341714326,0.03794389375421324,0.44372293330766993,0.43787893369262104,-0.0008228274468342865,-0.00041141372341714326,0.012099412953514887,-0.06839813299970902
0.016677653738815173,-0.09383120007699022,-0.15221850639976725,0.0,-0.01251082667693203,0.0,0.037532480030796095,0.44413434703108706,0.4399675199692039,0.0020885862765828737,0.004177172553165747,0.01251082667693203,-0.07089813299970904
0.01417765373881515,-0.09383120007699022,-0.15471850639976725,0.0,-0.01251082667693203,0.0,0.037532480030796095,0.44413434703108706,0.4424675199692039,0.004588586276582896,0.009177172553165792,0.01251082667693203,-0.07339813299970907
0.011677653738815135,-0.09466437301510712,-0.15638533346165037,-0.0008331729381168943,-0.01251082667693203,0.0,0.037532480030796095,0.444967519969204,0.444967519969204,0.007921759214699804,0.013343999615048925,0.014177172553165819,-0.07589813299970909
0.009177653738815142,-0.09716437301510711,-0.15638533346165037,-0.003333172938116889,-0.01251082667693203,0.0,0.037532480030796095,0.447467519969204,0.447467519969204,0.012921759214699794,0.01584399961504892,0.019177172553165808,-0.07839813299970907
0.006677653738815147,-0.09966437301510711,-0.15638533346165037,-0.005833172938116884,-0.01251082667693203,0.0,0.037532480030796095,0.449967519969204,0.449967519969204,0.017921759214699785,0.018343999615048914,0.024177172553165798,-0.08089813299970906
0.006255413338466015,-0.09800885381580537,-0.1543075738619995,-0.006255413338466015,-0.01251082667693203,0.0,0.037532480030796095,0.4524675199692039,0.4545452795688548,0.02292175921469977,0.02292175921469977,0.027099412953514923,-0.07924261380040734
0.006255413338466015,-0.09550885381580539,-0.15180757386199953,-0.006255413338466015,-0.01251082667693203,0.0,0.037532480030796095,0.4549675199692039,0.4595452795688548,0.02792175921469976,0.02792175921469976,0.02959941295351492,-0.07674261380040734
0.006255413338466015,-0.09383120007699022,-0.14930757386199955,-0.006255413338466015,-0.01251082667693203,0.0,0.037532480030796095,0.4566451737080191,0.4629005870464851,0.031277066692330074,0.031277066692330074,0.032099412953514914,-0.07506496006159219
0.006255413338466015,-0.09383120007699022,-0.14680757386199955,-0.006255413338466015,-0.01251082667693203,0.0,0.037532480030796095,0.4566451737080191,0.4629005870464851,0.031277066692330074,0.031277066692330074,0.03459941295351491,-0.07506496006159219
0.006255413338466015,-0.09383120007699022,-0.14430757386199955,-0.006255413338466015,-0.01251082667693203,0.0,0.037532480030796095,0.4566451737080191,0.4629005870464851,0.031277066692330074,0.031277066692330074,0.037099412953514904,-0.07506496006159219
0.004188480415747187,-0.09796506592242789,-0.1459414397074372,-0.008322346261184842,-0.01251082667693203,0.002066932922718828,0.03546554710807726,0.4587121066307379,0.4629005870464851,0.03541093253776773,0.03541093253776773,0.037532480030796095,-0.07713189298431102
0.001688480415747165,-0.10296506592242793,-0.1484414397074372,-0.010822346261184865,-0.01251082667693203,0.00456693292271885,0.03296554710807724,0.461212106630738,0.4629005870464851,0.04041093253776778,0.04041093253776778,0.037532480030796095,-0.07963189298431103
0.0,-0.10715354633817512,-0.15094143970743723,-0.01251082667693203,-0.01251082667693203,0.006255413338466015,0.031277066692330074,0.4629005870464851,0.463712106630738,0.04378789336926211,0.04378789336926211,0.036720960446543244,-0.08213189298431105
0.0,-0.1096535463381751,-0.1534414397074372,-0.01251082667693203,-0.01251082667693203,0.006255413338466015,0.031277066692330074,0.4629005870464851,0.466212106630738,0.04378789336926211,0.04378789336926211,0.03422096044654325,-0.08463189298431104
0.0,-0.11215354633817509,-0.1559414397074372,-0.01251082667693203,-0.01251082667693203,0.006255413338466015,0.031277066692330074,0.4629005870464851,0.468712106630738,0.04378789336926211,0.04378789336926211,0.03172096044654325,-0.08713189298431104
0.0,-0.11259744009238827,-0.15638533346165037,-0.01251082667693203,-0.01251082667693203,0.006255413338466015,0.031277066692330074,0.46495669329227196,0.471212106630738,0.04378789336926211,0.04378789336926211,0.031277066692330074,-0.08963189298431103
0.0,-0.11259744009238827,-0.15638533346165037,-0.01251082667693203,-0.01251082667693203,0.006255413338466015,0.031277066692330074,0.46745669329227196,0.473712106630738,0.04378789336926211,0.04378789336926211,0.031277066692330074,-0.09213189298431103
0.0,-0.11259744009238827,-0.15638533346165037,-0.01171013376961123,-0.01171013376961123,0.005454720431145216,0.030476373785009274,0.46915600038495114,0.47541141372341716,0.04378789336926211,0.04458858627658291,0.032077759599650875,-0.09383120007699022
0.0,-0.11259744009238827,-0.15638533346165037,-0.009210133769611278,-0.009210133769611278,0.0029547204311452624,0.027976373785009324,0.46915600038495114,0.47541141372341716,0.04378789336926211,0.04708858627658286,0.03457775959965083,-0.09383120007699022
0.0,-0.11259744009238827,-0.15638533346165037,-0.006710133769611256,-0.006710133769611256,0.00045472043114524064,0.0254763737850093,0.46915600038495114,0.47541141372341716,0.04378789336926211,0.049588586276582886,0.03707775959965085,-0.09383120007699022
0.0,-0.11464271966124304,-0.15843061303050512,-0.008300692907320776,-0.006255413338466015,0.0,0.02502165335386406,0.4712012799538059,0.4774566932922719,0.04583317293811687,0.05208858627658288,0.039577759599650854,-0.09587647964584499
0.0,-0.11714271966124302,-0.16093061303050513,-0.01080069290732077,-0.006255413338466015,0.0,0.02502165335386406,0.4737012799538059,0.4799566932922719,0.04833317293811686,0.054588586276582876,0.04207775959965085,-0.09837647964584498
0.0,-0.11885285343085429,-0.16185088056972766,-0.01251082667693203,-0.006255413338466015,0.0,0.02423178712347533,0.47541141372341716,0.48087696083149445,0.05004330670772812,0.05708858627658287,0.04378789336926211,-0.10008661341545624
0.0,-0.11885285343085429,-0.15935088056972765,-0.01251082667693203,-0.006255413338466015,0.0,0.021731787123475333,0.47541141372341716,0.47837696083149445,0.05004330670772812,0.05958858627658286,0.04378789336926211,-0.10008661341545624
0.0,-0.11885285343085429,-0.15685088056972765,-0.01251082667693203,-0.006255413338466015,0.0,0.01923178712347534,0.47541141372341716,0.47587696083149444,0.05004330670772812,0.062088586276582855,0.04378789336926211,-0.10008661341545624
0.0,-0.11478394764700889,-0.15638533346165037,-0.010476373785009329,-0.004220960446543313,-0.0020344528919227023,0.018766240015398047,0.47541141372341716,0.47541141372341716,0.04800885381580542,0.06051968049273745,0.04582234626118481,-0.09601770763161084
0.0,-0.1097839476470089,-0.15638533346165037,-0.007976373785009334,-0.0017209604465433185,-0.004534452891922697,0.018766240015398047,0.47541141372341716,0.47541141372341716,0.045508853815805425,0.05801968049273745,0.048322346261184805,-0.09101770763161085
0.0,-0.10556298720046559,-0.1556062939081937,-0.005476373785009331,0.0,-0.0070344528919227,0.017987200461941362,0.47463237416996046,0.47541141372341716,0.04222981426234874,0.054740640939280764,0.04848522760081475,-0.08679674718506752
0.0,-0.10306298720046556,-0.15310629390819366,-0.0029763737850093085,0.0,-0.009534452891922722,0.015487200461941339,0.47213237416996046,0.47541141372341716,0.03722981426234869,0.049740640939280725,0.04348522760081471,-0.08429674718506751
0.0,-0.10056298720046553,-0.15060629390819366,-0.0004763737850092863,0.0,-0.012034452891922745,0.012987200461941316,0.46963237416996045,0.47541141372341716,0.032229814262348645,0.04474064093928068,0.038485227600814666,-0.08179674718506748
0.0,-0.09806298720046552,-0.14810629390819366,0.0,0.0,-0.01251082667693203,0.010487200461941317,0.46713237416996045,0.47541141372341716,0.027229814262348648,0.03974064093928068,0.03550885381580538,-0.07929674718506749
0.0,-0.09556298720046554,-0.14560629390819366,0.0,0.0,-0.01251082667693203,0.007987200461941322,0.46463237416996045,0.47541141372341716,0.02222981426234866,0.03474064093928069,0.03300885381580538,-0.07679674718506749
0.0,-0.09306298720046553,-0.14310629390819368,0.0,0.0,-0.011742613800407342,0.006255413338466015,0.46136416129343577,0.4731067750938431,0.01799802713887336,0.030508853815805387,0.0297406409392807,-0.0742967471850675
0.0,-0.09056298720046554,-0.14060629390819368,0.0,0.0,-0.009242613800407348,0.006255413338466015,0.45636416129343577,0.46560677509384313,0.015498027138873363,0.028008853815805392,0.02474064093928071,-0.07179674718506751
0.0,-0.08806298720046556,-0.13810629390819368,0.0,0.0,-0.006742613800407353,0.006255413338466015,0.45136416129343576,0.4581067750938431,0.01299802713887337,0.0255088538158054,0.019740640939280723,-0.06929674718506751
0.002012799538058679,-0.08556298720046554,-0.13560629390819365,-0.002012799538058679,0.0,-0.006255413338466015,0.004242613800407337,0.4463641612934357,0.4566451737080191,0.008485227600814674,0.020996054277746704,0.01272784140122201,-0.06679674718506749
0.004512799538058701,-0.08306298720046551,-0.13310629390819365,-0.004512799538058701,0.0,-0.006255413338466015,0.0017426138004073138,0.4413641612934357,0.4566451737080191,0.0034852276008146277,0.015996054277746658,0.0052278414012219415,-0.06429674718506746
0.006255413338466015,-0.0805629872004655,-0.13060629390819362,-0.006255413338466015,0.0,-0.005498027138873316,0.0,0.43712154749302834,0.454373015109241,0.0,0.01175344047733933,-0.0007573861995927,-0.06179674718506745
0.006255413338466015,-0.0780629872004655,-0.1281062939081936,-0.006255413338466015,0.0,-0.0029980271388733207,0.0,0.4346215474930284,0.446873015109241,0.0,0.009253440477339336,-0.0032573861995926945,-0.05929674718506746
0.006255413338466015,-0.07556298720046552,-0.1256062939081936,-0.006255413338466015,0.0,-0.0004980271388733259,0.0,0.4321215474930284,0.43937301510924104,0.0,0.006753440477339341,-0.005757386199592689,-0.05679674718506746
0.004253440477339347,-0.07306298720046552,-0.12310629390819364,-0.008257386199592685,-0.004003945722253337,0.0020019728611266685,-0.0020019728611266685,0.42561760177077507,0.43187301510924103,-0.0020019728611266685,0.004253440477339347,-0.006255413338466015,-0.05429674718506747
0.0017534404773393523,-0.07056298720046553,-0.12060629390819363,-0.010757386199592678,-0.009003945722253326,0.004501972861126663,-0.004501972861126663,0.41811760177077506,0.4243730151092411,-0.004501972861126663,0.0017534404773393523,-0.006255413338466015,-0.05179674718506747
0.0,-0.06806298720046552,-0.11810629390819365,-0.01251082667693203,-0.01251082667693203,0.006255413338466015,-0.006255413338466015,0.4113641612934357,0.41761957463190175,-0.006255413338466015,-0.0007465595226606425,-0.007001972861126657,-0.04929674718506748
0.0,-0.06556298720046552,-0.11560629390819366,-0.01251082667693203,-0.01251082667693203,0.006255413338466015,-0.006255413338466015,0.4063641612934357,0.41261957463190174,-0.006255413338466015,-0.003246559522660637,-0.009501972861126652,-0.04679674718506749
0.0,-0.06306298720046553,-0.11310629390819366,-0.01251082667693203,-0.01251082667693203,0.006255413338466015,-0.006255413338466015,0.4013641612934357,0.40761957463190174,-0.006255413338466015,-0.005746559522660632,-0.012001972861126647,-0.044296747185067493
0.0,-0.06056298720046552,-0.11060629390819364,-0.010519680492737398,-0.01251082667693203,0.0042642671542713825,-0.008246559522660648,0.39437301510924105,0.4006284284477071,-0.010237705706855282,-0.008246559522660648,-0.014501972861126665,-0.04179674718506748
0.0,-0.058062987200465495,-0.10810629390819362,-0.008019680492737376,-0.01251082667693203,0.0017642671542713604,-0.010746559522660671,0.386873015109241,0.393128428447707,-0.015237705706855327,-0.010746559522660671,-0.017001972861126688,-0.039296747185067454
0.0,-0.056298720046194135,-0.10487056106246495,-0.00551968049273736,-0.01103936098547472,-0.0007357328457286544,-0.01251082667693203,0.3786372822635123,0.3848926956019783,-0.018766240015398047,-0.013246559522660685,-0.020237705706855357,-0.037532480030796095
0.0,-0.056298720046194135,-0.09987056106246496,-0.0030196804927373664,-0.006039360985474733,-0.003235732845728649,-0.01251082667693203,0.36863728226351233,0.37489269560197835,-0.018766240015398047,-0.01574655952266068,-0.025237705706855344,-0.037532480030796095
0.0,-0.056298720046194135,-0.09487056106246511,-0.0005196804927374409,-0.0010393609854748818,-0.005735732845728574,-0.01251082667693203,0.35863728226351266,0.3648926956019787,-0.018766240015398047,-0.018246559522660605,-0.030237705706855193,-0.037532480030796095
-0.005940958521787661,-0.05827903955345669,-0.08194928303341491,0.0,0.0,-0.00823573284572857,-0.01251082667693203,0.3506176017707752,0.35687301510924124,-0.0207465595226606,-0.0207465595226606,-0.031277066692330074,-0.037532480030796095
-0.013440958521787645,-0.06077903955345668,-0.06694928303341494,0.0,0.0,-0.010735732845728563,-0.01251082667693203,0.3431176017707752,0.34937301510924124,-0.023246559522660595,-0.023246559522660595,-0.031277066692330074,-0.037532480030796095
-0.020940958521787654,-0.061104321047067076,-0.053399095371007996,0.0,-0.0007249061687965354,-0.01251082667693203,-0.01251082667693203,0.3356176017707752,0.34187301510924123,-0.025746559522660598,-0.02502165335386406,-0.03200197286112661,-0.03680757386199956
-0.028440958521787723,-0.056104321047067036,-0.043399095371007904,0.0,-0.0032249061687965575,-0.01251082667693203,-0.01251082667693203,0.32811760177077515,0.33437301510924117,-0.028246559522660617,-0.02502165335386406,-0.034501972861126634,-0.034307573861999535
-0.03594095852178779,-0.05110432104706699,-0.03339909537100781,0.0,-0.00572490616879658,-0.01251082667693203,-0.01251082667693203,0.3206176017707751,0.3268730151092411,-0.03074655952266064,-0.02502165335386406,-0.03700197286112666,-0.03180757386199951
-0.04344095852178779,-0.04610432104706699,-0.023399095371007813,0.0,-0.00428592050813545,-0.014480319507262597,-0.01251082667693203,0.31114810894044453,0.3193730151092411,-0.031277066692330074,-0.026991146184194625,-0.037532480030796095,-0.027338081031668945
-0.050940958521787774,-0.041104321047067,-0.013399095371007835,0.0,-0.0017859205081354555,-0.01698031950726259,-0.01251082667693203,0.3011481089404445,0.3118730151092411,-0.031277066692330074,-0.02949114618419462,-0.037532480030796095,-0.022338081031668955
-0.05844095852178775,-0.03610432104706702,0.004455779039502075,0.0007140794918645394,0.0,-0.018766240015398047,-0.01251082667693203,0.29114810894044457,0.30294485612551203,-0.031991146184194616,-0.031277066692330074,-0.03681840053893155,-0.01662400153980443
-0.06594095852178775,-0.031104321047067025,0.041955779039502,0.0032140794918645342,0.0,-0.018766240015398047,-0.01251082667693203,0.2811481089404446,0.2904448561255121,-0.03449114618419461,-0.031277066692330074,-0.03431840053893156,-0.009124001539804444
-0.07344095852178772,-0.026104321047067038,0.0794557790395019,0.005714079491864529,0.0,-0.018766240015398047,-0.01251082667693203,0.2711481089404446,0.2779448561255121,-0.03699114618419461,-0.031277066692330074,-0.03181840053893156,-0.0016240015398044615
-0.09661028774897601,-0.017186988740269943,0.06211312674434333,0.004296747185067486,-0.0019586661533985295,-0.012890241555202457,-0.01251082667693203,0.26114810894044455,0.26740352227891057,-0.03557381387739757,-0.031277066692330074,-0.031277066692330074,0.005875998460195589
-0.12411028774897626,-0.007186988740269854,0.029613126744343035,0.0017967471850674635,-0.004458666153398552,-0.00539024155520239,-0.01251082667693203,0.2511481089404445,0.25740352227891045,-0.03307381387739754,-0.031277066692330074,-0.031277066692330074,0.013375998460195658
-0.1333257145607302,0.0021097584447976304,-0.002183620440724506,-0.0007032528149325435,-0.006958666153398558,0.0,-0.01251082667693203,0.24185136175537697,0.24810677509384296,-0.031277066692330074,-0.031277066692330074,-0.03057381387739753,0.020875998460195676
-0.09582571456073069,0.009609758444797532,-0.03218362044072411,-0.00320325281493251,-0.009458666153398526,0.0,-0.01251082667693203,0.23435136175537707,0.24060677509384307,-0.031277066692330074,-0.031277066692330074,-0.028073813877397564,0.02837599846019558
-0.058325714560731184,0.017109758444797434,-0.06218362044072372,-0.005703252814932477,-0.011958666153398492,0.0,-0.01251082667693203,0.22685136175537715,0.23310677509384317,-0.031277066692330074,-0.031277066692330074,-0.0255738138773976,0.035875998460195485
-0.02277355403719751,0.020714079491864518,-0.09997497834658972,-0.008203252814932487,-0.014458666153398502,0.003895678952932944,-0.010562987200465558,0.21545568280244418,0.2217110961409102,-0.02738138773939713,-0.029329227215863604,-0.02502165335386406,0.039480319507262565
0.012226445962802805,0.02321407949186454,-0.13997497834659006,-0.01070325281493251,-0.016958666153398527,0.008895678952932988,-0.008062987200465537,0.20295568280244408,0.2092110961409101,-0.022381387739397088,-0.02682922721586358,-0.02502165335386406,0.04198031950726259
0.04791887210080362,0.02502165335386406,-0.17928255220858993,-0.01181840053893153,-0.018766240015398047,0.01251082667693203,-0.005562987200465514,0.19114810894044446,0.19671109614090998,-0.018073813877397545,-0.024329227215863558,-0.02502165335386406,0.04378789336926211
0.08541887210080396,0.02502165335386406,-0.21678255220859027,-0.009318400538931506,-0.018766240015398047,0.01251082667693203,-0.0030629872004654915,0.18114810894044436,0.18421109614090986,-0.015573813877397523,-0.02182922721586354,-0.02502165335386406,0.04378789336926211
0.12291887210080428,0.02502165335386406,-0.2542825522085906,-0.006818400538931485,-0.018766240015398047,0.01251082667693203,-0.0005629872004654698,0.1711481089404443,0.17171109614090976,-0.013073813877397499,-0.019329227215863515,-0.02502165335386406,0.04378789336926211
0.15848185930126946,0.01921061495526053,-0.2898455394090558,-0.006255413338466015,-0.018766240015398047,0.01251082667693203,0.00193701279953451,0.16114810894044437,0.16114810894044437,-0.01057381387739752,-0.016829227215863538,-0.02695866615339857,0.03797685497065858
0.193481859301269,0.011710614955260629,-0.3248455394090553,-0.006255413338466015,-0.018766240015398047,0.01251082667693203,0.0044370127995344765,0.1511481089404445,0.1511481089404445,-0.008073813877397553,-0.01432922721586357,-0.02945866615339854,0.030476854970658676
0.22848185930126874,0.002165816572055353,-0.35984553940905506,-0.006937012799534459,-0.018084640554329602,0.011829227215863587,0.006255413338466015,0.14182970840151302,0.14182970840151302,-0.006255413338466015,-0.013192426138000474,-0.031277066692330074,0.020932056587453396
0.26348185930126905,-0.012834183427944781,-0.39484553940905537,-0.009437012799534482,-0.01558464055432958,0.009329227215863564,0.006255413338466015,0.13432970840151295,0.13432970840151295,-0.006255413338466015,-0.0156924261380005,-0.031277066692330074,0.005932056587453261
0.29848185930126936,-0.027834183427944914,-0.4298455394090557,-0.011937012799534503,-0.013084640554329556,0.0068292272158635425,0.006255413338466015,0.12682970840151286,0.12682970840151286,-0.006255413338466015,-0.018192426138000522,-0.031277066692330074,-0.009067943412546874
0.35274372052729464,-0.048612741795752534,-0.457140794918646,-0.008658454431727039,-0.01251082667693203,0.006255413338466015,0.006255413338466015,0.11932970840151282,0.11740352227891032,-0.008181599461068511,-0.02069242613800054,-0.03320325281493257,-0.029846501780354494
0.4127437205272952,-0.07111274179575275,-0.4821407949186462,-0.0036584544317269947,-0.01251082667693203,0.006255413338466015,0.006255413338466015,0.11182970840151275,0.10740352227891023,-0.010681599461068534,-0.023192426138000564,-0.0357032528149326,-0.0523465017803547
0.44524203637769844,-0.09227119622747978,-0.49909152150900815,0.0,-0.01251082667693203,0.005584640554329505,0.006926186122602525,0.10500048118564924,0.0974035222789102,-0.01251082667693203,-0.02502165335386406,-0.037532480030796095,-0.07283418342794523
0.402742036377699,-0.10977119622747955,-0.49409152150900826,0.0,-0.01251082667693203,0.0030846405543295385,0.009426186122602492,0.1000004811856493,0.08740352227891034,-0.01251082667693203,-0.02502165335386406,-0.037532480030796095,-0.08783418342794504
0.3602420363776996,-0.12727119622747932,-0.48909152150900836,0.0,-0.01251082667693203,0.0005846405543295718,0.011926186122602458,0.09500048118564937,0.07740352227891048,-0.01251082667693203,-0.02502165335386406,-0.037532480030796095,-0.10283418342794484
0.3330649119430629,-0.14094047733613851,-0.47643008372632656,0.0,-0.01251082667693203,0.001915359445670438,0.01251082667693203,0.08808512173997891,0.07123424117025132,-0.014426186122602469,-0.026937012799534497,-0.037532480030796095,-0.1178341834279449
0.31056491194306274,-0.1534404773361386,-0.46143008372632643,0.0,-0.01251082667693203,0.00441535944567046,0.01251082667693203,0.08058512173997885,0.06623424117025126,-0.016926186122602493,-0.02943701279953452,-0.037532480030796095,-0.13283418342794504
0.2893848041574716,-0.1666004234433431,-0.4437902992975086,0.0,-0.013170772784136484,0.006255413338466015,0.01251082667693203,0.07374506784718328,0.061894187277455694,-0.018766240015398047,-0.031277066692330074,-0.037532480030796095,-0.14717423732074061
0.2718848041574718,-0.1816004234433429,-0.4187902992975089,0.0,-0.01567077278413645,0.006255413338466015,0.01251082667693203,0.06874506784718334,0.05939418727745573,-0.018766240015398047,-0.031277066692330074,-0.037532480030796095,-0.15967423732074046
0.254384804157472,-0.19660042344334272,-0.3937902992975092,0.0,-0.018170772784136417,0.006255413338466015,0.01251082667693203,0.06374506784718341,0.056894187277455766,-0.018766240015398047,-0.031277066692330074,-0.037532480030796095,-0.17217423732074028
0.22545760754504166,-0.19636416129343573,-0.3687902992975091,0.0,-0.016861707246659665,0.0024463478009892547,0.01251082667693203,0.06064960061592177,0.05248965450871738,-0.018766240015398047,-0.029372533923591695,-0.037532480030796095,-0.17324704070831004
0.19295760754504138,-0.19136416129343567,-0.34379029929750893,0.0,-0.014361707246659644,-0.0025536521990107905,0.01251082667693203,0.05814960061592175,0.04748965450871733,-0.018766240015398047,-0.026872533923591672,-0.037532480030796095,-0.17074704070831004
0.1611067269753135,-0.1857150418631632,-0.3200885381580535,0.0,-0.01251082667693203,-0.006255413338466015,0.01315994610720444,0.05500048118564932,0.042489654508717285,-0.018766240015398047,-0.024372533923591653,-0.03688336060052368,-0.16629968241749277
0.13110672697531323,-0.17821504186316317,-0.3000885381580533,0.0,-0.01251082667693203,-0.006255413338466015,0.015659946107204465,0.05000048118564927,0.03748965450871724,-0.018766240015398047,-0.02187253392359163,-0.03438336060052366,-0.15629968241749267
0.10110672697531295,-0.1707150418631631,-0.2800885381580532,0.0,-0.01251082667693203,-0.006255413338466015,0.018159946107204485,0.04500048118564923,0.0324896545087172,-0.018766240015398047,-0.019372533923591607,-0.03188336060052364,-0.1462996824174926
0.08625637570976455,-0.15564021749593748,-0.2563011259744405,-0.003787412183612839,-0.010617120585125612,-0.004361707246659596,0.018766240015398047,0.04378789336926211,0.027489654508717237,-0.01687253392359163,-0.01687253392359163,-0.031277066692330074,-0.13251227023387985
0.07625637570976468,-0.1381402174959377,-0.2313011259744408,-0.008787412183612772,-0.008117120585125644,-0.0018617072466596291,0.018766240015398047,0.04378789336926211,0.022489654508717302,-0.01437253392359166,-0.01437253392359166,-0.031277066692330074,-0.11751227023388004
0.0656180829564244,-0.12127851024927819,-0.20949258974114277,-0.013149119430272383,-0.006255413338466015,0.0012765855066807043,0.018127947262057693,0.0425113078625814,0.018127947262057693,-0.013149119430272383,-0.013149119430272383,-0.031277066692330074,-0.10251227023388015
0.0531180829564243,-0.10627851024927806,-0.19699258974114264,-0.015649119430272404,-0.006255413338466015,0.006276585506680749,0.01562794726205767,0.03751130786258136,0.01562794726205767,-0.015649119430272404,-0.015649119430272404,-0.031277066692330074,-0.08751227023388002
0.04061808295642419,-0.09127851024927792,-0.18449258974114255,-0.018149119430272427,-0.006255413338466015,0.011276585506680793,0.013127947262057649,0.032511307862581315,0.013127947262057649,-0.018149119430272427,-0.018149119430272427,-0.031277066692330074,-0.07251227023387988
0.03564960061592169,-0.08004426907902659,-0.17010971032626804,-0.022531998845146853,-0.00813829275334042,0.018159464921555242,0.01251082667693203,0.031277066692330074,0.01251082667693203,-0.018766240015398047,-0.02064911943027245,-0.03315994610720448,-0.06127802906362855
0.03314960061592166,-0.0700442690790265,-0.15510971032626789,-0.0275319988451469,-0.010638292753340441,0.025659464921555308,0.01251082667693203,0.031277066692330074,0.01251082667693203,-0.018766240015398047,-0.023149119430272473,-0.03565994610720451,-0.051278029063628466
0.03253199884514692,-0.06004426907902647,-0.1419921085554931,-0.03253199884514692,-0.01251082667693203,0.03253199884514692,0.01313829275334045,0.030649600615921656,0.01188336060052361,-0.019393706091806465,-0.02564911943027248,-0.038159946107204516,-0.04127802906362843
0.037531998845146575,-0.05004426907902716,-0.1344921085554936,-0.037531998845146575,-0.01251082667693203,0.037531998845146575,0.015638292753340277,0.028149600615921828,0.009383360600523784,-0.021893706091806294,-0.028149119430272308,-0.040659946107204345,-0.031278029063629115
0.04253199884514651,-0.04004426907902729,-0.1269921085554937,-0.04253199884514651,-0.01251082667693203,0.04253199884514651,0.018138292753340245,0.02564960061592186,0.006883360600523816,-0.02439370609180626,-0.030649119430272275,-0.043159946107204306,-0.02127802906362925
0.04378789336926211,-0.03191632181696947,-0.11949210855549368,-0.045659946107204315,-0.014382879414874239,0.04753199884514652,0.018766240015398047,0.02502165335386406,0.006255413338466015,-0.026893706091806267,-0.03314911943027228,-0.045659946107204315,-0.013150081801571425
0.04378789336926211,-0.024416321816969403,-0.11199210855549362,-0.04815994610720434,-0.016882879414874263,0.05253199884514657,0.018766240015398047,0.02502165335386406,0.006255413338466015,-0.02939370609180629,-0.03564911943027231,-0.04815994610720434,-0.005650081801571356
0.04378789336926211,-0.018149600615921812,-0.10572538735444603,-0.05065994610720436,-0.018766240015398047,0.056298720046194135,0.018766240015398047,0.025638292753340296,0.006255413338466015,-0.031277066692330074,-0.037532480030796095,-0.05004330670772812,0.0012332787989524738
0.04378789336926211,-0.015649600615921785,-0.103225387354446,-0.053159946107204384,-0.018766240015398047,0.056298720046194135,0.018766240015398047,0.02813829275334032,0.006255413338466015,-0.031277066692330074,-0.037532480030796095,-0.05004330670772812,0.006233278798952518
0.04378789336926211,-0.013149600615921764,-0.10072538735444597,-0.0556599461072044,-0.018766240015398047,0.056298720046194135,0.018766240015398047,0.030638292753340342,0.006255413338466015,-0.031277066692330074,-0.037532480030796095,-0.05004330670772812,0.011233278798952563
0.04378789336926211,-0.008788374554911535,-0.098225387354446,-0.05443749398518389,-0.016905013954387798,0.05443749398518389,0.018766240015398047,0.031277066692330074,0.00997786546048651,-0.03499951881435057,-0.037532480030796095,-0.05004330670772812,0.014372052737942278
0.04378789336926211,-0.0037883745549116016,-0.09572538735444602,-0.05193749398518392,-0.014405013954387832,0.05193749398518392,0.018766240015398047,0.031277066692330074,0.014977865460486444,-0.0399995188143505,-0.037532480030796095,-0.05004330670772812,0.016872052737942247
0.04378789336926211,0.0,-0.09383120007699022,-0.0506491194302723,-0.01190501395438785,0.04943749398518394,0.019372052737942225,0.031882879414874256,0.01816042729285387,-0.044999518814350464,-0.03934991819842863,-0.04943749398518394,0.018766240015398047
0.04378789336926211,0.0,-0.09383120007699022,-0.053149119430272326,-0.00940501395438783,0.04693749398518392,0.02187205273794225,0.03438287941487428,0.015660427292853843,-0.04999951881435051,-0.046849918198428694,-0.04693749398518392,0.018766240015398047
0.04378789336926211,0.0,-0.09383120007699022,-0.05564911943027234,-0.006905013954387806,0.0444374939851839,0.02437205273794227,0.0368828794148743,0.013160427292853822,-0.054999518814350556,-0.054349918198428764,-0.0444374939851839,0.018766240015398047
0.04563829275334034,0.0,-0.09568159946106845,-0.059999518814350596,-0.004405013954387784,0.04378789336926211,0.02502165335386406,0.035682080646717865,0.01251082667693203,-0.06370031758250706,-0.059999518814350596,-0.04563829275334034,0.018766240015398047
0.04813829275334036,0.0,-0.09818159946106848,-0.06499951881435065,-0.001905013954387762,0.04378789336926211,0.02502165335386406,0.033182080646717835,0.01251082667693203,-0.07370031758250714,-0.06499951881435065,-0.04813829275334036,0.018766240015398047
0.05004330670772812,0.0005949860456122473,-0.099491627369844,-0.06880954672312617,0.0011899720912244946,0.04438287941487436,0.02502165335386406,0.031277066692330074,0.011915840631319783,-0.08310533153689494,-0.06999951881435067,-0.04944832066211587,0.019361226061010296
0.05004330670772812,0.003094986045612214,-0.09699162736984403,-0.06880954672312617,0.006189972091224428,0.046882879414874325,0.02502165335386406,0.031277066692330074,0.009415840631319816,-0.09060533153689485,-0.0749995188143506,-0.046948320662115905,0.02186122606101026
0.05004330670772812,0.00559498604561218,-0.09449162736984405,-0.06880954672312617,0.01118997209122436,0.049382879414874285,0.02502165335386406,0.031277066692330074,0.00691584063131985,-0.09810533153689474,-0.07999951881435052,-0.044448320662115945,0.024361226061010228
0.051882879414874294,0.006255413338466015,-0.09383120007699022,-0.07064911943027234,0.014350399384078205,0.05004330670772812,0.02502165335386406,0.031277066692330074,0.006255413338466015,-0.10376575882974859,-0.07212250986432733,-0.03642960254067741,0.02502165335386406
0.05438287941487432,0.006255413338466015,-0.09383120007699022,-0.07314911943027237,0.01685039938407823,0.05004330670772812,0.02502165335386406,0.031277066692330074,0.006255413338466015,-0.10876575882974863,-0.05962250986432722,-0.026429602540677326,0.02502165335386406
0.056298720046194135,0.006255413338466015,-0.0949995188143506,-0.07564911943027237,0.018182080646717856,0.04945914733904793,0.02443749398518387,0.031277066692330074,0.006255413338466015,-0.11201328072370809,-0.04712250986432717,-0.015845443171997098,0.02502165335386406
0.056298720046194135,0.006255413338466015,-0.09999951881435054,-0.07814911943027235,0.01568208064671789,0.04695914733904796,0.021937493985183906,0.031277066692330074,0.006255413338466015,-0.10951328072370811,-0.03462250986432734,-0.0033454431719972637,0.02502165335386406
0.056298720046194135,0.006255413338466015,-0.10499951881435048,-0.08064911943027231,0.013182080646717921,0.044459147339048,0.019437493985183938,0.031277066692330074,0.006255413338466015,-0.10701328072370815,-0.022122509864327504,0.00915455682800257,0.02502165335386406
0.056298720046194135,0.004426667308251899,-0.10817077278413638,-0.07949162736984408,0.01616831873736026,0.04013040130883388,0.018766240015398047,0.031277066692330074,0.004426667308251899,-0.09719829660285169,-0.00779376383411335,0.02165455682800261,0.023192907323649946
0.056298720046194135,0.0019266673082518771,-0.1106707727841364,-0.07699162736984407,0.021168318737360307,0.035130401308833825,0.018766240015398047,0.031277066692330074,0.0019266673082518771,-0.08469829660285158,0.007206236165886785,0.034154556828002725,0.020692907323649923
0.056298720046194135,0.0,-0.11259744009238827,-0.0739182946780959,0.02502165335386406,0.030130401308833783,0.018192907323649903,0.031277066692330074,0.0,-0.07334496198634775,0.021632903474138775,0.04608122413625469,0.018766240015398047
0.056298720046194135,0.0,-0.11259744009238827,-0.06891829467809585,0.02502165335386406,0.02513040130883374,0.01569290732364988,0.031277066692330074,0.0,-0.06584496198634768,0.03413290347413889,0.05608122413625478,0.018766240015398047
0.056298720046194135,0.0,-0.11259744009238827,-0.0639182946780958,0.02502165335386406,0.020130401308833697,0.013192907323649855,0.031277066692330074,0.0,-0.058344961986347615,0.046632903474138995,0.06608122413625486,0.018766240015398047
0.056298720046194135,0.0,-0.11259744009238827,-0.060736214031377994,0.02502165335386406,0.018766240015398047,0.014328746030214189,0.031277066692330074,0.0,-0.050844961986347664,0.05186122606101028,0.06699162736984401,0.018766240015398047
0.056298720046194135,0.0,-0.11259744009238827,-0.05823621403137803,0.02502165335386406,0.018766240015398047,0.016828746030214156,0.031277066692330074,0.0,-0.04334496198634777,0.054361226061010244,0.06449162736984404,0.018766240015398047
0.05742373207582631,0.0,-0.11259744009238827,-0.055736214031378045,0.02502165335386406,0.017078721970949784,0.018766240015398047,0.031277066692330074,0.0005625060148160876,-0.041470022134508705,0.050673659898033255,0.05749157925131536,0.018766240015398047
0.062423732075826355,0.0,-0.11259744009238827,-0.05323621403137803,0.02502165335386406,0.009578721970949717,0.018766240015398047,0.031277066692330074,0.0030625060148161097,-0.05897002213450886,0.02567365989803304,0.03499157925131516,0.018766240015398047
0.0674237320758264,0.0,-0.11259744009238827,-0.050736214031378006,0.02502165335386406,0.002078721970949649,0.018766240015398047,0.031277066692330074,0.005562506014816132,-0.07647002213450901,0.0006736598980328148,0.012491579251314958,0.018766240015398047
0.06880954672312617,0.0018070926763501395,-0.11259744009238827,-0.046429121355027844,0.023214560677513922,0.0018070926763501395,0.018766240015398047,0.031277066692330074,0.0044483206621158755,-0.09397002213450917,-0.02432634010196741,-0.011815513425035376,0.020573332691748186
0.06880954672312617,0.004307092676350162,-0.11259744009238827,-0.0414291213550278,0.0207145606775139,0.004307092676350162,0.018766240015398047,0.031277066692330074,0.0019483206621158534,-0.11147002213450932,-0.049326340101967625,-0.0368155134250356,0.02307333269174821
0.06880954672312617,0.006255413338466015,-0.11204576075450412,-0.03642912135502778,0.01821456067751389,0.006255413338466015,0.018766240015398047,0.030725387354445917,0.0,-0.1278666634587411,-0.07322298142619943,-0.061263834087151546,0.02502165335386406
0.06880954672312617,0.006255413338466015,-0.10954576075450415,-0.031429121355027845,0.015714560677513922,0.006255413338466015,0.018766240015398047,0.028225387354445953,0.0,-0.1403666634587409,-0.09322298142619916,-0.08376383408715124,0.02502165335386406
0.06880954672312617,0.006255413338466015,-0.10704576075450419,-0.02642912135502791,0.013214560677513955,0.006255413338466015,0.018766240015398047,0.025725387354445985,0.0,-0.15286666345874075,-0.11322298142619888,-0.10626383408715095,0.02502165335386406
0.06880954672312617,0.00984794533730218,-0.10634202675392226,-0.02322538735444598,0.008918294678095868,0.004459147339047934,0.016969974015979966,0.026817919353282142,0.0,-0.17075546145699502,-0.13861177942445319,-0.128763834087151,0.028614185352700227
0.06880954672312617,0.014847945337302224,-0.10634202675392226,-0.020725387354445957,0.003918294678095822,0.001959147339047911,0.014469974015979943,0.029317919353282165,0.0,-0.1907554614569952,-0.16611177942445343,-0.15126383408715122,0.03361418535270027
0.06935039938407828,0.017684534693493823,-0.10742373207582649,-0.017684534693493823,-0.0005408526609521113,0.0,0.01251082667693203,0.031277066692330074,0.0005408526609521113,-0.21021460879604328,-0.19361177942445368,-0.17430468674810354,0.03699162736984398
0.0718503993840783,0.01268453469349378,-0.11242373207582652,-0.01268453469349378,-0.0030408526609521334,0.0,0.01251082667693203,0.031277066692330074,0.0030408526609521334,-0.22771460879604344,-0.22111177942445392,-0.19930468674810375,0.03449162736984396
0.07435039938407834,0.0076845346934937345,-0.11742373207582657,-0.0076845346934937345,-0.005540852660952156,0.0,0.01251082667693203,0.031277066692330074,0.005540852660952156,-0.24521460879604356,-0.24861177942445417,-0.22430468674810397,0.031991627369843935
0.07506496006159219,0.006255413338466015,-0.11885285343085429,-0.004469974015979892,-0.008040852660952138,0.0,0.01251082667693203,0.031277066692330074,0.006255413338466015,-0.24486021557118223,-0.26004282552207886,-0.25287556539307604,0.02949162736984395
0.07506496006159219,0.006255413338466015,-0.11885285343085429,-0.001969974015979925,-0.010540852660952105,0.0,0.01251082667693203,0.031277066692330074,0.006255413338466015,-0.23736021557118234,-0.2650428255220788,-0.2828755653930756,0.026991627369843986
0.07506496006159219,0.0057253873544459615,-0.11938287941487434,0.0005300259840200536,-0.013040852660952085,0.0,0.01251082667693203,0.031277066692330074,0.0057253873544459615,-0.2266800596670621,-0.26580261764991836,-0.3012149937446342,0.024491627369844008
0.07506496006159219,0.0032253873544459393,-0.12188287941487436,0.003030025984020076,-0.015540852660952106,0.0,0.01251082667693203,0.031277066692330074,0.0032253873544459393,-0.20418005966706188,-0.2508026176499182,-0.276214993744634,0.021991627369843985
0.07506496006159219,0.0007253873544459171,-0.12438287941487439,0.005530025984020098,-0.01804085266095213,0.0,0.01251082667693203,0.031277066692330074,0.0007253873544459171,-0.1816800596670617,-0.23580261764991806,-0.25121499374463374,0.019491627369843965
0.07683957270714625,0.0,-0.1251082667693203,0.009804638629574147,-0.020540852660952114,0.0,0.01251082667693203,0.031277066692330074,0.0,-0.15740544702150777,-0.21547877971325596,-0.23153883168129613,0.020540852660952114
0.07933957270714621,0.0,-0.1251082667693203,0.014804638629574082,-0.02304085266095208,0.0,0.01251082667693203,0.031277066692330074,0.0,-0.13240544702150808,-0.19297877971325628,-0.21403883168129637,0.02304085266095208
0.0813203734000582,0.0,-0.1256274660764083,0.018766240015398047,-0.02502165335386406,0.0,0.01251082667693203,0.031277066692330074,0.000519199307087996,-0.10636704840733231,-0.16944038109908047,-0.19601963237420852,0.024502454046776066
0.0813203734000582,0.0,-0.12812746607640832,0.018766240015398047,-0.02502165335386406,0.0,0.01251082667693203,0.031277066692330074,0.0030191993070880184,-0.07636704840733205,-0.14194038109908025,-0.17601963237420834,0.022002454046776043
0.0813203734000582,0.0,-0.13062746607640835,0.018766240015398047,-0.02502165335386406,0.0,0.01251082667693203,0.031277066692330074,0.005519199307088041,-0.04636704840733179,-0.11444038109907999,-0.15601963237420818,0.019502454046776023
0.0813203734000582,0.0017637859686220477,-0.13136368010778632,0.017002454046776,-0.028549225291108156,0.0,0.01251082667693203,0.031277066692330074,0.004491627369843968,-0.016367048407331518,-0.08870416706770179,-0.13778341834283003,0.020530025984020095
0.0813203734000582,0.00426378596862207,-0.13136368010778632,0.014502454046775977,-0.0335492252911082,0.0,0.01251082667693203,0.031277066692330074,0.0019916273698439456,0.013632951592668752,-0.06370416706770157,-0.12028341834282988,0.023030025984020118
0.08182874603021427,0.0067637859686220814,-0.13085530747763024,0.01251082667693203,-0.037532480030796095,0.0,0.01251082667693203,0.030768694062174008,0.0,0.04312457896251282,-0.038704167067701446,-0.10227504571267373,0.025530025984020127
0.08432874603021423,0.009263785968622047,-0.12835530747763027,0.01251082667693203,-0.037532480030796095,0.0,0.01251082667693203,0.02826869406217404,0.0,0.07062457896251245,-0.013704167067701781,-0.082275045712674,0.028030025984020095
0.0868287460302142,0.011763785968622015,-0.12585530747763032,0.01251082667693203,-0.037532480030796095,0.0,0.01251082667693203,0.025768694062174077,0.0,0.09812457896251209,0.011295832932297883,-0.06227504571267426,0.03053002598402006
0.0893287460302142,0.01426378596862202,-0.1251082667693203,0.01426378596862202,-0.035779520739106105,0.0,0.01251082667693203,0.02502165335386406,-0.0017529592916899902,0.12387161967082216,0.03629583293229795,-0.04052208642098422,0.033030025984020064
0.09182874603021422,0.016763785968622043,-0.1251082667693203,0.016763785968622043,-0.033279520739106075,0.0,0.01251082667693203,0.02502165335386406,-0.004252959291690012,0.14887161967082238,0.06129583293229817,-0.018022086420984025,0.035530025984020094
0.09383120007699022,0.019263785968622067,-0.1251082667693203,0.018766240015398047,-0.0317746126455541,0.0,0.01251082667693203,0.02502165335386406,-0.006255413338466015,0.17188143585792653,0.08480319507262633,0.0019901838128960785,0.03803002598402012
0.09383120007699022,0.02176378596862209,-0.1251082667693203,0.018766240015398047,-0.03427461264555412,0.0,0.01251082667693203,0.02502165335386406,-0.006255413338466015,0.18688143585792666,0.10230319507262649,0.011990183812896167,0.040530025984020134
0.09383120007699022,0.02426378596862211,-0.1251082667693203,0.018766240015398047,-0.03677461264555414,0.0,0.01251082667693203,0.02502165335386406,-0.006255413338466015,0.2018814358579268,0.11980319507262664,0.021990183812896257,0.04303002598402016
0.09557333269174825,0.026763785968622094,-0.12336613415456227,0.018766240015398047,-0.037532480030796095,0.0017421326147580326,0.01251082667693203,0.023279520739106028,-0.006255413338466015,0.21513930324316868,0.1303346646135944,0.03199018381289619,0.04553002598402014
0.09807333269174809,0.02926378596862192,-0.12086613415456245,0.018766240015398047,-0.037532480030796095,0.00424213261475786,0.01251082667693203,0.020779520739106203,-0.006255413338466015,0.2276393032431678,0.1378346646135939,0.0419901838128955,0.04803002598401997
0.10057333269174806,0.0317637859686219,-0.11885285343085429,0.01925295929168987,-0.037532480030796095,0.0057686940621741924,0.01251082667693203,0.018766240015398047,-0.006255413338466015,0.2396525839668759,0.14582138388988566,0.051503464536603594,0.05101674526031177
0.10307333269174809,0.034263785968621924,-0.11885285343085429,0.021752959291689893,-0.037532480030796095,0.00326869406217417,0.01251082667693203,0.018766240015398047,-0.006255413338466015,0.24965258396687595,0.15582138388988573,0.059003464536603656,0.056016745260311814
0.10557333269174812,0.03676378596862195,-0.11885285343085429,0.024252959291689913,-0.037532480030796095,0.0007686940621741472,0.01251082667693203,0.018766240015398047,-0.006255413338466015,0.25965258396687607,0.16582138388988582,0.06650346453660373,0.06101674526031185
0.10634202675392226,0.040995091906447845,-0.11539024155520254,0.02502165335386406,-0.03580117409297022,-0.001731305937825875,0.01251082667693203,0.020497545953223922,-0.006255413338466015,0.2644586661533985,0.1706274660764083,0.07227215859877792,0.06428543932248602
0.10634202675392226,0.04599509190644789,-0.1103902415552025,0.02502165335386406,-0.0333011740929702,-0.004231305937825897,0.01251082667693203,0.022997545953223945,-0.006255413338466015,0.2669586661533985,0.1731274660764083,0.07727215859877797,0.06678543932248605
0.10634202675392226,0.05099509190644791,-0.10586613415456236,0.02502165335386406,-0.03175295929168997,-0.006255413338466015,0.012034934077572137,0.024545760754504167,-0.006255413338466015,0.26945866615339853,0.17562746607640833,0.08084448080069831,0.06976133192184596
0.10634202675392226,0.055995091906447844,-0.1033661341545624,0.02502165335386406,-0.034252959291689936,-0.006255413338466015,0.00953493407757217,0.0220457607545042,-0.006255413338466015,0.27195866615339853,0.1781274660764083,0.07834448080069834,0.07476133192184589
0.10634202675392226,0.06099509190644777,-0.10086613415456243,0.02502165335386406,-0.03675295929168991,-0.006255413338466015,0.0070349340775722035,0.019545760754504236,-0.006255413338466015,0.2744586661533985,0.18062746607640826,0.07584448080069837,0.07976133192184583
0.10806250601481608,0.06599509190644778,-0.09664565489366861,0.023301174092970244,-0.037532480030796095,-0.002814454816678381,0.006255413338466015,0.018766240015398047,-0.007975892599359833,0.2769586661533985,0.18140698681551445,0.07678543932248601,0.08648181118273965
0.1105625060148161,0.07099509190644783,-0.09164565489366856,0.02080117409297022,-0.037532480030796095,0.002185545183321664,0.006255413338466015,0.018766240015398047,-0.010475892599359854,0.27945866615339854,0.18140698681551445,0.07928543932248602,0.09398181118273971
0.11306250601481611,0.07553002598402003,-0.08757578673852422,0.0183011740929702,-0.037997545953223945,0.006720479260893862,0.005790347416038169,0.0183011740929702,-0.01251082667693203,0.2814936002309707,0.1818720527379423,0.0813203734000582,0.10055167933788409
0.11556250601481614,0.07803002598402005,-0.08757578673852422,0.015801174092970178,-0.04049754595322396,0.009220479260893885,0.003290347416038146,0.015801174092970178,-0.01251082667693203,0.2814936002309707,0.1843720527379423,0.0813203734000582,0.10305167933788412
0.11806250601481616,0.08053002598402008,-0.08757578673852422,0.013301174092970155,-0.042997545953223984,0.011720479260893906,0.0007903474160381244,0.013301174092970155,-0.01251082667693203,0.2814936002309707,0.18687205273794233,0.0813203734000582,0.10555167933788415
0.12056250601481615,0.08473967856798191,-0.0841564815706005,0.014220479260893891,-0.04378789336926211,0.01251082667693203,0.0,0.01251082667693203,-0.01251082667693203,0.2832032528149326,0.1893720527379423,0.0813203734000582,0.10805167933788412
0.12306250601481611,0.08973967856798185,-0.07915648157060057,0.01672047926089386,-0.04378789336926211,0.01251082667693203,0.0,0.01251082667693203,-0.01251082667693203,0.28570325281493253,0.19187205273794228,0.0813203734000582,0.11055167933788408
0.12556250601481608,0.09564815705897338,-0.0746107208160964,0.01831200076990226,-0.0442421326147579,0.01296506592242782,0.0,0.01251082667693203,-0.01251082667693203,0.2891117313059241,0.19391781349244647,0.08177461264555398,0.11441439707437143
0.1280625060148161,0.10564815705897347,-0.07211072081609637,0.015812000769902235,-0.04674213261475792,0.015465065922427843,0.0,0.01251082667693203,-0.01251082667693203,0.2966117313059241,0.19391781349244647,0.08427461264555401,0.12441439707437152
0.13056250601481614,0.11564815705897356,-0.06961072081609634,0.013312000769902212,-0.04924213261475794,0.017965065922427866,0.0,0.01251082667693203,-0.01251082667693203,0.30411173130592417,0.19391781349244647,0.08677461264555403,0.1344143970743716
0.13306250601481612,0.12225050524491389,-0.06711072081609637,0.01251082667693203,-0.05004330670772812,0.02046506592242785,0.0,0.01251082667693203,-0.01251082667693203,0.3065152535848347,0.19561663939947627,0.09097343855258382,0.14101674526031194
0.1355625060148161,0.12725050524491383,-0.0646107208160964,0.01251082667693203,-0.05004330670772812,0.022965065922427814,0.0,0.01251082667693203,-0.01251082667693203,0.3065152535848347,0.19811663939947624,0.09597343855258375,0.1460167452603119
0.13806250601481607,0.13180709267635005,-0.061667308247532686,0.01251082667693203,-0.05004330670772812,0.02502165335386406,0.0,0.01251082667693203,-0.013397651814059493,0.3065152535848347,0.20061663939947622,0.10053002598401997,0.1505733326917481
0.1405625060148161,0.13430709267635008,-0.05666730824753264,0.01251082667693203,-0.05004330670772812,0.02502165335386406,0.0,0.01251082667693203,-0.018397651814059536,0.3065152535848347,0.20311663939947625,0.10303002598402,0.1530733326917481
0.14306250601481613,0.1368070926763501,-0.0516673082475326,0.01251082667693203,-0.05004330670772812,0.02502165335386406,0.0,0.01251082667693203,-0.023397651814059582,0.3065152535848347,0.20561663939947628,0.10553002598402003,0.15557333269174814
0.14387450678471836,0.1409950919064479,-0.046667308247532555,0.01251082667693203,-0.04835530747763034,0.021645654893668494,0.0,0.014198825907029814,-0.021645654893668494,0.3098912520450303,0.2081166393994763,0.10634202675392226,0.15976133192184594
0.14387450678471836,0.14599509190644797,-0.04166730824753251,0.01251082667693203,-0.045855307477630315,0.016645654893668448,0.0,0.016698825907029837,-0.016645654893668448,0.3148912520450303,0.2106166393994763,0.10634202675392226,0.164761331921846
0.14430709267635017,0.15012992012318438,-0.0383976518140597,0.01251082667693203,-0.04422047926089391,0.012943412568563835,0.0,0.018766240015398047,-0.01251082667693203,0.3194586661533986,0.21311663939947634,0.10677461264555407,0.16932874603021422
0.14680709267635014,0.15012992012318438,-0.043397651814059635,0.01251082667693203,-0.04672047926089388,0.0154434125685638,0.0,0.018766240015398047,-0.01251082667693203,0.3219586661533985,0.21561663939947628,0.10927461264555403,0.1718287460302142
0.1493070926763501,0.15012992012318438,-0.04839765181405957,0.01251082667693203,-0.049220479260893846,0.017943412568563768,0.0,0.018766240015398047,-0.01251082667693203,0.3244586661533985,0.21811663939947626,0.111774612645554,0.17432874603021414
0.1518070926763501,0.15348426522951583,-0.048366134154562396,0.01251082667693203,-0.05004330670772812,0.020443412568563774,0.0,0.01708906746223232,-0.01251082667693203,0.32863583870656426,0.22229381195264197,0.11259744009238827,0.17682874603021417
0.15430709267635012,0.15848426522951586,-0.04586613415456237,0.01251082667693203,-0.05004330670772812,0.022943412568563797,0.0,0.014589067462232298,-0.01251082667693203,0.33363583870656427,0.22729381195264203,0.11259744009238827,0.17932874603021418
0.15638533346165037,0.1634842652295159,-0.04336613415456236,0.012089067462232275,-0.05004330670772812,0.02502165335386406,0.0,0.01251082667693203,-0.01251082667693203,0.3382140794918646,0.23229381195264207,0.11301919930708802,0.18225050524491396
0.15638533346165037,0.16848426522951596,-0.040866134154562334,0.009589067462232252,-0.05004330670772812,0.02502165335386406,0.0,0.01251082667693203,-0.01251082667693203,0.3407140794918646,0.23729381195264213,0.11551919930708805,0.187250505244914
0.15638533346165037,0.173484265229516,-0.03836613415456231,0.007089067462232231,-0.05004330670772812,0.02502165335386406,0.0,0.01251082667693203,-0.01251082667693203,0.3432140794918646,0.24229381195264216,0.11801919930708807,0.19225050524491405
0.15638533346165037,0.1768179193532822,-0.034199788278328556,0.007921759214699784,-0.05004330670772812,0.02502165335386406,0.0016663458762337699,0.01251082667693203,-0.01251082667693203,0.3457140794918646,0.24562746607640837,0.11885285343085429,0.19558415936868023
0.15638533346165037,0.17931791935328217,-0.02919978827832862,0.010421759214699752,-0.05004330670772812,0.02502165335386406,0.004166345876233737,0.01251082667693203,-0.01251082667693203,0.34821407949186456,0.24812746607640832,0.11885285343085429,0.1980841593686802
0.15679626599941807,0.18181791935328215,-0.02502165335386406,0.01251082667693203,-0.050454239245495816,0.02502165335386406,0.006255413338466015,0.01251082667693203,-0.01251082667693203,0.35030314695409687,0.2502165335386406,0.11967471850638968,0.20058415936868018
0.1592962659994181,0.18431791935328215,-0.02502165335386406,0.01251082667693203,-0.05295423924549584,0.02502165335386406,0.006255413338466015,0.01251082667693203,-0.01251082667693203,0.35030314695409687,0.2502165335386406,0.12467471850638973,0.2030841593686802
0.16179626599941813,0.18681791935328218,-0.02502165335386406,0.01251082667693203,-0.05545423924549586,0.02502165335386406,0.006255413338466015,0.01251082667693203,-0.01251082667693203,0.35030314695409687,0.2502165335386406,0.12967471850638979,0.20558415936868024
0.1626407468001164,0.1893179193532822,-0.02336613415456231,0.01582186507553553,-0.06292079684340113,0.02833269175246756,0.006255413338466015,0.01251082667693203,-0.01416634587623378,0.35030314695409687,0.25187205273794233,0.13136368010778632,0.20808415936868027
0.1626407468001164,0.1918179193532822,-0.02086613415456229,0.020821865075535573,-0.07292079684340122,0.03333269175246761,0.006255413338466015,0.01251082667693203,-0.016666345876233803,0.35030314695409687,0.2543720527379424,0.13136368010778632,0.21058415936868027
0.16304085266095217,0.19431791935328224,-0.018766240015398047,0.02542175921469983,-0.08252069098256551,0.03873279761330341,0.005855307477630246,0.01251082667693203,-0.018766240015398047,0.35070325281493264,0.2568720527379424,0.13136368010778632,0.2130841593686803
0.16554085266095214,0.19681791935328222,-0.018766240015398047,0.027921759214699797,-0.0900206909825654,0.0462327976133033,0.0033553074776302787,0.01251082667693203,-0.018766240015398047,0.3532032528149326,0.25937205273794234,0.13136368010778632,0.21558415936868025
0.1680408526609521,0.19931791935328216,-0.018766240015398047,0.030421759214699765,-0.0975206909825653,0.0537327976133032,0.0008553074776303116,0.01251082667693203,-0.018766240015398047,0.3557032528149326,0.26187205273794234,0.13136368010778632,0.21808415936868022
0.1688961601385824,0.2018179193532822,-0.017121547493028355,0.03292175921469977,-0.1083100760273047,0.06123279761330321,0.0,0.01251082667693203,-0.018766240015398047,0.35984794533730224,0.26437205273794234,0.13300837263015602,0.22058415936868023
0.1688961601385824,0.2043179193532822,-0.014621547493028332,0.03542175921469979,-0.12081007602730481,0.06873279761330328,0.0,0.01251082667693203,-0.018766240015398047,0.3648479453373023,0.26687205273794234,0.13550837263015603,0.22308415936868023
0.1688961601385824,0.2060393609854748,-0.01251082667693203,0.037921759214699806,-0.13253151765949744,0.07584351842939961,0.0,0.012121547493028318,-0.018766240015398047,0.36945866615339856,0.26898277355403866,0.13800837263015606,0.22480560100087282
0.1688961601385824,0.20353936098547482,-0.01251082667693203,0.04042175921469977,-0.14003151765949737,0.08084351842939955,0.0,0.009621547493028352,-0.018766240015398047,0.37195866615339856,0.26898277355403866,0.14050837263015603,0.22230560100087285
0.1688961601385824,0.20103936098547487,-0.01251082667693203,0.04292175921469974,-0.14753151765949726,0.08584351842939948,0.0,0.007121547493028384,-0.018766240015398047,0.3744586661533985,0.26898277355403866,0.14300837263015598,0.2198056010008729
0.16726229429314476,0.2001732268309125,-0.010876960831494396,0.037252429987511576,-0.14196059089599622,0.08920965258396185,0.0,0.006255413338466015,-0.020400105860835682,0.3769586661533985,0.2738843710903516,0.14387450678471836,0.21893946684631052
0.16476229429314476,0.2001732268309125,-0.008376960831494374,0.027252429987511484,-0.1294605908959961,0.09170965258396187,0.0,0.006255413338466015,-0.022900105860835702,0.37945866615339857,0.28138437109035164,0.14387450678471836,0.21893946684631052
0.16226229429314473,0.19979477432394083,-0.005876960831494351,0.01573861995962474,-0.11431142334719432,0.09193893754213191,0.0,0.005876960831494351,-0.02502165335386406,0.38233711866037023,0.2877490135694367,0.14387450678471836,0.21856101433933886
0.1597622942931447,0.1972947743239408,-0.0033769608314943296,-0.004261380040375438,-0.08431142334719405,0.0794389375421318,0.0,0.0033769608314943296,-0.02502165335386406,0.3873371186603703,0.2877490135694367,0.14387450678471836,0.21606101433933886
0.15726229429314467,0.19479477432394077,-0.000876960831494307,-0.02426138004037562,-0.054311423347193785,0.06693893754213168,0.0,0.000876960831494307,-0.02502165335386406,0.39233711866037035,0.2877490135694367,0.14387450678471836,0.21356101433933883
0.15313925512463902,0.19067173515543512,-0.0016230391685056792,-0.045884419208881186,-0.01781926667317124,0.05119285920512039,0.0,0.0,-0.02502165335386406,0.39571407949186466,0.29099509190644807,0.14387450678471836,0.20943797517083318
0.1481392551246391,0.1856717351554352,-0.004123039168505645,-0.06838441920888089,0.02218073332682822,0.03369285920512063,0.0,0.0,-0.02502165335386406,0.3982140794918646,0.295995091906448,0.14387450678471836,0.20443797517083323
0.14350688095467876,0.18103936098547485,-0.006255413338466015,-0.09051679337884107,0.06254835915686743,0.015457607545041593,0.0,0.0,-0.024654027523824455,0.4007140794918646,0.30062746607640833,0.14460975844479756,0.19980560100087288
0.14100688095467873,0.17853936098547482,-0.006255413338466015,-0.11051679337884124,0.1050483591568678,-0.0070423924549586105,0.0,0.0,-0.022154027523824435,0.4032140794918646,0.3031274660764084,0.1496097584447976,0.19730560100087285
0.1385068809546787,0.1760393609854748,-0.006255413338466015,-0.13051679337884142,0.1475483591568682,-0.029542392454958814,0.0,0.0,-0.019654027523824412,0.4057140794918646,0.30562746607640834,0.15460975844479766,0.19480560100087282
0.13439466846310502,0.17192714849390112,-0.006255413338466015,-0.14890458088726793,0.18682393417372126,-0.053654604946532666,0.0,0.0,-0.018766240015398047,0.40821407949186467,0.3081274660764084,0.15638533346165037,0.19069338850929915
0.12939466846310496,0.16692714849390106,-0.006255413338466015,-0.16640458088726812,0.2243239341737216,-0.0786546049465329,0.0,0.0,-0.018766240015398047,0.41071407949186467,0.3106274660764084,0.15638533346165037,0.18569338850929912
0.12439466846310494,0.16157034934079337,-0.005898614185358336,-0.18675897411212963,0.2611103358675064,-0.10365460494653303,0.0,0.0003567991531076791,-0.018409440862290367,0.41321407949186467,0.31277066692330074,0.15674213261475806,0.18033658935619143
0.11939466846310501,0.15407034934079347,-0.0033986141853583696,-0.22425897411212914,0.293610335867506,-0.1286546049465327,0.0,0.0028567991531076456,-0.0159094408622904,0.4157140794918647,0.31277066692330074,0.15924213261475803,0.1728365893561915
0.11439466846310507,0.14657034934079358,-0.0008986141853584029,-0.2617589741121287,0.3261103358675056,-0.15365460494653238,0.0,0.005356799153107612,-0.013409440862290433,0.4182140794918646,0.31277066692330074,0.16174213261475798,0.1653365893561916
0.10939466846310507,0.14067173515543516,0.0,-0.2512173996728807,0.3666172649407136,-0.172249061687966,0.0016013858146416,0.006255413338466015,-0.01251082667693203,0.41911269367722304,0.31437205273794233,0.164242132614758,0.1594379751708332
0.1043946684631053,0.13567173515543537,0.0,-0.21371739967288242,0.4116172649407115,-0.1872490616879653,0.0041013858146414835,0.006255413338466015,-0.01251082667693203,0.41911269367722304,0.3168720527379422,0.16674213261475787,0.15443797517083344
0.09904869598692977,0.13067173515543534,0.0,-0.17863920700611052,0.44347031084604327,-0.20190308921178993,0.006255413338466015,0.006255413338466015,-0.01251082667693203,0.41945866615339855,0.31902608026176676,0.1688961601385824,0.1494379751708334
0.0915486959869297,0.12567173515543528,0.0,-0.15863920700611034,0.39347031084604284,-0.21440308921179005,0.006255413338466015,0.006255413338466015,-0.01251082667693203,0.42195866615339855,0.31902608026176676,0.1688961601385824,0.14443797517083334
0.08404869598692963,0.12067173515543525,0.0,-0.13863920700611015,0.3434703108460424,-0.22690308921179017,0.006255413338466015,0.006255413338466015,-0.01251082667693203,0.42445866615339856,0.31902608026176676,0.1688961601385824,0.1394379751708333
0.0797298142623487,0.11567173515543527,0.003181118275419014,-0.11704864786840076,0.3173286979116853,-0.22985973438553306,0.006255413338466015,0.006255413338466015,-0.014101385814641538,0.42536810701568906,0.32220719853718577,0.17207727841400142,0.13602853430854284
0.07722981426234873,0.11067173515543535,0.008181118275418947,-0.09454864786840106,0.30482869791168543,-0.22735973438553309,0.006255413338466015,0.006255413338466015,-0.016601385814641507,0.42536810701568906,0.3272071985371857,0.17707727841400137,0.13352853430854286
0.07405952266386188,0.1066771725531657,0.01251082667693203,-0.07271893946688816,0.29031782311622495,-0.22418944278704625,0.006255413338466015,0.006255413338466015,-0.018766240015398047,0.4257032528149325,0.33187205273794224,0.18174213261475788,0.13136368010778632
0.06655952266386182,0.10917717255316571,0.01251082667693203,-0.055218939466887995,0.2628178231162247,-0.2166894427870462,0.006255413338466015,0.006255413338466015,-0.018766240015398047,0.4282032528149325,0.33437205273794224,0.1842421326147579,0.13136368010778632
0.05905952266386175,0.11167717255316573,0.01251082667693203,-0.037718939466887834,0.23531782311622446,-0.20918944278704613,0.006255413338466015,0.006255413338466015,-0.018766240015398047,0.43070325281493255,0.3368720527379423,0.18674213261475792,0.13136368010778632
0.05313925512463916,0.11101770763161078,0.015670291598487,-0.018639207006110197,0.20623809065544674,-0.1985299778654911,0.006255413338466015,0.006255413338466015,-0.018766240015398047,0.4316235203541551,0.3393720527379423,0.19082186507553542,0.12978394764700882
0.048139255124639124,0.10851770763161077,0.020670291598487045,0.0013607929938899838,0.17623809065544646,-0.18602997786549097,0.006255413338466015,0.006255413338466015,-0.018766240015398047,0.4316235203541551,0.34187205273794236,0.19582186507553548,0.12728394764700882
0.04313925512463909,0.10601770763161075,0.02534597247617557,0.01973919738233257,0.14818400538931534,-0.17385429698780241,0.006255413338466015,0.006255413338466015,-0.018766240015398047,0.4319478394764666,0.34437205273794236,0.200497545953224,0.1251082667693203
0.03813925512463916,0.10351770763161079,0.027845972476175533,0.02723919738233247,0.13318400538931552,-0.16385429698780254,0.006255413338466015,0.006255413338466015,-0.018766240015398047,0.43444783947646654,0.3468720527379423,0.20299754595322397,0.1251082667693203
0.03313925512463922,0.10101770763161082,0.0303459724761755,0.034739197382332374,0.11818400538931573,-0.15385429698780267,0.006255413338466015,0.006255413338466015,-0.018766240015398047,0.4369478394764665,0.3493720527379423,0.20549754595322392,0.1251082667693203
0.029708160908484646,0.10165551919930167,0.03441487826002093,0.03439466846310524,0.10475291117316113,-0.14385429698780267,0.006255413338466015,0.0046865075546205885,-0.020335145799243476,0.43787893369262104,0.3518720527379423,0.20799754595322395,0.1251082667693203
0.027208160908484626,0.1041555191993017,0.03941487826002098,0.029394668463105192,0.09225291117316102,-0.13385429698780257,0.006255413338466015,0.0021865075546205663,-0.022835145799243495,0.43787893369262104,0.3543720527379423,0.21049754595322395,0.1251082667693203
0.024394668463105163,0.10634202675392226,0.044101385814641555,0.024081176017725713,0.0800664036185404,-0.12291381965166415,0.0059419208930865655,0.00031349244537944964,-0.02502165335386406,0.43787893369262104,0.3568720527379423,0.21331103839860344,0.1251082667693203
0.019394668463105228,0.10634202675392226,0.04660138581464152,0.01658117601772581,0.07006640361854052,-0.10541381965166438,0.003441920893086599,0.0028134924453794164,-0.02502165335386406,0.43787893369262104,0.3593720527379423,0.21831103839860336,0.1251082667693203
0.014394668463105295,0.10634202675392226,0.04910138581464149,0.00908117601772591,0.06006640361854067,-0.08791381965166462,0.0009419208930866322,0.005313492445379383,-0.02502165335386406,0.43787893369262104,0.36187205273794226,0.22331103839860328,0.1251082667693203
0.010952747570018661,0.10790010586083564,0.053159464921554864,2.3096910812537598e-05,0.0531825618323674,-0.07197189875857798,0.0,0.006255413338466015,-0.02346357424695069,0.43787893369262104,0.3628139736310289,0.22675295929168993,0.12666634587623365
0.00845274757001864,0.11040010586083565,0.0581594649215549,-0.00997690308918755,0.048182561832367354,-0.056971898758577846,0.0,0.006255413338466015,-0.02096357424695067,0.43787893369262104,0.3628139736310289,0.22925295929168993,0.12916634587623368
0.006255413338466015,0.11290010586083567,0.06285679915310755,-0.019371571552292844,0.04348522760081471,-0.04287989606391991,0.0,0.006255413338466015,-0.019068905783845447,0.43757626792417365,0.3634193051679237,0.23145029352324256,0.13136368010778632
0.006255413338466015,0.1154001058608357,0.06535679915310758,-0.02437157155229289,0.04098522760081469,-0.03537989606391984,0.0,0.006255413338466015,-0.021568905783845467,0.43507626792417364,0.3684193051679237,0.23145029352324256,0.13136368010778632
0.006255413338466015,0.11790010586083571,0.06785679915310759,-0.029371571552292933,0.038485227600814666,-0.027879896063919777,0.0,0.006255413338466015,-0.02406890578384549,0.43257626792417364,0.37341930516792377,0.23145029352324256,0.13136368010778632
0.004708160908484599,0.11885285343085429,0.06880954672312617,-0.03437157155229291,0.03598522760081468,-0.02192714849390123,0.0,0.006255413338466015,-0.02502165335386406,0.4316235203541551,0.37223029544799807,0.2345447983832054,0.13291093253776773
0.002208160908484632,0.11885285343085429,0.06880954672312617,-0.039371571552292844,0.03348522760081471,-0.016927148493901294,0.0,0.006255413338466015,-0.02502165335386406,0.4316235203541551,0.3672302954479982,0.23954479838320533,0.1354109325377677
0.0,0.11885285343085429,0.06939322490615685,-0.04437157155229279,0.031277066692330074,-0.011635309402386006,0.0,0.005963574246950674,-0.02502165335386406,0.4313316812626397,0.3628139736310289,0.24425295929168994,0.13791093253776768
0.0,0.11885285343085429,0.0743932249061569,-0.04937157155229283,0.031277066692330074,-0.004135309402385939,0.0,0.003463574246950652,-0.02502165335386406,0.4288316812626397,0.3628139736310289,0.24675295929168994,0.1404109325377677
0.0,0.11885285343085429,0.07939322490615694,-0.05437157155229288,0.031277066692330074,0.0033646905976141284,0.0,0.0009635742469506292,-0.02502165335386406,0.4263316812626397,0.3628139736310289,0.24925295929168997,0.14291093253776774
0.0,0.11885285343085429,0.0797839476470088,-0.056298720046194135,0.031277066692330074,0.007791839091515408,0.0015364257530493931,0.0,-0.02502165335386406,0.4222952555095903,0.3612775478779795,0.25175295929169,0.14233808103166898
0.0,0.11885285343085429,0.07728394764700879,-0.056298720046194135,0.031277066692330074,0.010291839091515431,0.004036425753049415,0.0,-0.02502165335386406,0.41729525550959023,0.3587775478779795,0.25425295929169,0.13983808103166895
-0.0002810124145834163,0.11829082860168746,0.07478394764700877,-0.05657973246077755,0.031277066692330074,0.01251082667693203,0.006255413338466015,0.0,-0.024740640939280644,0.4120142430950068,0.3562775478779795,0.2564719468771066,0.1370570686170855
-0.002781012414583383,0.11329082860168753,0.07228394764700881,-0.059079732460777516,0.031277066692330074,0.01251082667693203,0.006255413338466015,0.0,-0.02224064093928068,0.40451424309500683,0.3537775478779795,0.2564719468771066,0.13205706861708558
-0.005281012414583349,0.1082908286016876,0.06978394764700883,-0.061579732460777484,0.031277066692330074,0.01251082667693203,0.006255413338466015,0.0,-0.019740640939280713,0.39701424309500694,0.35127754787797955,0.2564719468771066,0.12705706861708563
-0.006255413338466015,0.10634202675392226,0.06880954672312617,-0.06255413338466015,0.031277066692330074,0.01251082667693203,0.007781012414583351,0.003051198152234671,-0.015715041863163377,0.38951424309500693,0.34877754787797954,0.2564719468771066,0.1251082667693203
-0.006255413338466015,0.10634202675392226,0.06880954672312617,-0.06255413338466015,0.031277066692330074,0.01251082667693203,0.010281012414583374,0.008051198152234715,-0.01071504186316333,0.38201424309500687,0.3462775478779795,0.2564719468771066,0.1251082667693203
-0.006255413338466015,0.10661221249157363,0.06880954672312617,-0.062283947647008786,0.03154725242998144,0.012240640939280666,0.012781012414583395,0.012781012414583395,-0.005985227600814651,0.37478442883265817,0.3437775478779795,0.2564719468771066,0.12537845250697166
-0.006255413338466015,0.10911221249157364,0.06880954672312617,-0.05978394764700876,0.03404725242998147,0.009740640939280643,0.015281012414583418,0.015281012414583418,-0.003485227600814628,0.36978442883265816,0.3412775478779795,0.2564719468771066,0.1278784525069717
-0.006255413338466015,0.11161221249157366,0.06880954672312617,-0.05728394764700874,0.03654725242998149,0.007240640939280621,0.017781012414583443,0.017781012414583443,-0.0009852276008146055,0.3647844288326581,0.3387775478779794,0.2564719468771066,0.13037845250697172
-0.006255413338466015,0.1110826676932029,0.06880954672312617,-0.05478394764700875,0.037532480030796095,0.004740640939280632,0.02028101241458343,0.02028101241458343,0.003029544798370766,0.35675488403428735,0.33324800307960867,0.2549571744779212,0.12984890770860094
-0.006255413338466015,0.10858266769320293,0.06880954672312617,-0.052283947647008784,0.037532480030796095,0.0022406409392806657,0.022781012414583395,0.022781012414583395,0.008029544798370699,0.3467548840342875,0.32574800307960877,0.25245717447792126,0.12734890770860097
-0.006255413338466015,0.10608266769320296,0.06855018766240686,-0.05004330670772812,0.037532480030796095,0.0,0.02528101241458337,0.025540371475302675,0.012770185737651337,0.3367548840342876,0.31850736214032815,0.2499571744779213,0.12484890770860099
-0.006255413338466015,0.10358266769320293,0.06605018766240683,-0.05004330670772812,0.037532480030796095,0.0,0.02778101241458339,0.03054037147530272,0.01527018573765136,0.3267548840342875,0.3135073621403281,0.2474571744779213,0.12234890770860098
-0.006255413338466015,0.10108266769320291,0.06355018766240682,-0.05004330670772812,0.037532480030796095,0.0,0.030281012414583412,0.03554037147530277,0.017770185737651385,0.3167548840342874,0.30850736214032803,0.24495717447792126,0.11984890770860096
-0.006255413338466015,0.10008661341545624,0.06255413338466015,-0.05154725242998148,0.039036425753049456,0.0,0.031277066692330074,0.039036425753049456,0.020270185737651405,0.3082588297565407,0.3004994706958213,0.24095322875566788,0.11885285343085429
-0.006255413338466015,0.10008661341545624,0.06255413338466015,-0.0540472524299815,0.04153642575304947,0.0,0.031277066692330074,0.04153642575304947,0.022770185737651428,0.3007588297565406,0.2904994706958212,0.23595322875566782,0.11885285343085429
-0.006255413338466015,0.10008661341545624,0.06255413338466015,-0.056298720046194135,0.04403642575304949,-0.000248532383787383,0.031277066692330074,0.04378789336926211,0.025270185737651444,0.2930102973727532,0.28074800307960857,0.2307046963718804,0.11885285343085429
-0.006255413338466015,0.10008661341545624,0.06255413338466015,-0.056298720046194135,0.046536425753049455,-0.0027485323837873497,0.031277066692330074,0.04378789336926211,0.02777018573765141,0.28301029737275335,0.2732480030796086,0.2232046963718805,0.11885285343085429
-0.006255413338466015,0.10008661341545624,0.06255413338466015,-0.056298720046194135,0.04903642575304942,-0.005248532383787316,0.031277066692330074,0.04378789336926211,0.030270185737651376,0.27301029737275345,0.2657480030796087,0.2157046963718806,0.11885285343085429
-0.006255413338466015,0.09859349437013494,0.05956789529401755,-0.05779183909151544,0.05004330670772812,-0.006255413338466015,0.03277018573765138,0.04677413145990471,0.03277018573765138,0.26301029737275344,0.2567548840342874,0.20969781541720192,0.11885285343085429
-0.006255413338466015,0.09609349437013491,0.0545678952940175,-0.06029183909151546,0.05004330670772812,-0.006255413338466015,0.0352701857376514,0.051774131459904754,0.0352701857376514,0.2530102973727534,0.24675488403428736,0.20469781541720186,0.11885285343085429
-0.00601770763161069,0.09383120007699022,0.05004330670772812,-0.06255413338466015,0.05004330670772812,-0.00601770763161069,0.037294774323940766,0.056298720046194135,0.037770185737651424,0.24277259166589799,0.23651717832743197,0.19922240400349117,0.11885285343085429
